Date,alpha
2019-01-02,0.0
2019-01-03,0.01028933980870676
2019-01-04,-0.01870697412642806
2019-01-07,0.005692714994799505
2019-01-08,0.00016793210617939436
2019-01-09,-0.00031234486624818613
2019-01-10,-0.0014578935510248274
2019-01-11,0.00407230609987518
2019-01-14,0.007954669931433272
2019-01-15,-0.0011899396394049985
2019-01-16,-0.005377075885461427
2019-01-17,-9.17011811602357e-05
2019-01-18,0.002001747609853483
2019-01-22,-0.0010388104964119923
2019-01-23,0.005594370306378836
2019-01-24,-0.001053362725661682
2019-01-25,-0.0021820892296823386
2019-01-28,0.009697070409483411
2019-01-29,-0.0016058951041990214
2019-01-30,-0.012708985938326542
2019-01-31,0.0017617309228295938
2019-02-01,0.0031075084773805025
2019-02-04,-0.00420750787489554
2019-02-05,0.006945927693862597
2019-02-06,0.008490969234704807
2019-02-07,0.00499769203313453
2019-02-08,-0.00859512719816342
2019-02-11,0.00012603756678441415
2019-02-12,-0.009419202199004453
2019-02-13,0.0021818792871832813
2019-02-14,-0.005082407422868595
2019-02-15,-0.013790569192074126
2019-02-19,-0.009886885790450037
2019-02-20,-0.0004897090374594063
2019-02-21,0.007316103334397367
2019-02-22,-0.018745251124936406
2019-02-25,-0.0022888522870319517
2019-02-26,0.0015151223650841305
2019-02-27,-0.00010350783850785177
2019-02-28,0.0041353400905012605
2019-03-01,-0.013010382936041091
2019-03-04,0.010850843032038777
2019-03-05,0.0020110708392904364
2019-03-06,-0.004266879551703826
2019-03-07,0.0010632934018703453
2019-03-08,0.005739869692491512
2019-03-11,-0.0018970471493965613
2019-03-12,-0.002622164018414041
2019-03-13,-0.005624607087889176
2019-03-14,0.00915389800722567
2019-03-15,-0.002491053478285978
2019-03-18,0.003936759860257751
2019-03-19,0.005730274612167534
2019-03-20,0.008663585675473153
2019-03-21,-0.002456742244586442
2019-03-22,0.0018057907966011974
2019-03-25,0.005407245626981572
2019-03-26,-0.0032081815794350694
2019-03-27,0.004700209626143278
2019-03-28,0.002873537791875835
2019-03-29,-0.006562256077402867
2019-04-01,0.004987758879910658
2019-04-02,-0.0031545122483622383
2019-04-03,-0.0012505143318801476
2019-04-04,0.0016811904412720507
2019-04-05,-0.001921266801152202
2019-04-08,0.004333793566196738
2019-04-09,0.00023455177463385906
2019-04-10,0.0049233715906878694
2019-04-11,0.0027013479800004274
2019-04-12,-0.0026937972321032884
2019-04-15,-0.002825642107221607
2019-04-16,0.0019419941984273642
2019-04-17,-0.009977757640374629
2019-04-18,0.00189401361291942
2019-04-22,0.011396297330240132
2019-04-23,0.001320019711073993
2019-04-24,-0.0029043789550958405
2019-04-25,0.0017002676662336508
2019-04-26,0.009328282686208942
2019-04-29,0.002646839208757466
2019-04-30,-0.01234816453605447
2019-05-01,0.03152378684238309
2019-05-02,0.0011062135385276311
2019-05-03,-0.004139256875915244
2019-05-06,0.016888365228290972
2019-05-07,0.009703768010962833
2019-05-08,0.006064887042621812
2019-05-09,-0.007239773849662832
2019-05-10,-0.009213342453689627
2019-05-13,0.007961492550251964
2019-05-14,-0.0034191076192974105
2019-05-15,-0.0017425670051912769
2019-05-16,-0.0032737860832402132
2019-05-17,-0.0001121314572901274
2019-05-20,-0.0012311235456066954
2019-05-21,-0.005328541528339961
2019-05-22,-0.005616729564682124
2019-05-23,0.002803007918723133
2019-05-24,-0.0020290298092577306
2019-05-28,0.019512812386463598
2019-05-29,0.009754643281889774
2019-05-30,0.004673238422555966
2019-05-31,0.004436316922526989
2019-06-03,-0.005596737409327213
2019-06-04,0.0013873899031513826
2019-06-05,-0.008361179301022611
2019-06-06,0.019042657791634807
2019-06-07,0.008765921421714692
2019-06-10,0.011907364597450665
2019-06-11,-0.004689295975291418
2019-06-12,-0.012910003460594012
2019-06-13,-0.010748305098670686
2019-06-14,-0.00883770272499767
2019-06-17,0.0009540112511443365
2019-06-18,-0.007481121009596714
2019-06-19,-0.008214335098164518
2019-06-20,-0.008376476564493281
2019-06-21,0.004393638422920864
2019-06-24,-0.002244836068749521
2019-06-25,0.03140797792614833
2019-06-26,0.008019509105668465
2019-06-27,0.011281871912594067
2019-06-28,0.015600552582834923
2019-07-01,-0.007119830320870494
2019-07-02,-0.01927014342314988
2019-07-03,0.0005943907674839219
2019-07-05,-0.006229346512957033
2019-07-08,-0.003607805489316938
2019-07-09,0.0010636238222794716
2019-07-10,-0.010894293882491001
2019-07-11,0.004892623937053006
2019-07-12,-0.008067377616807491
2019-07-15,-0.004432982524121631
2019-07-16,0.006224304481886239
2019-07-17,0.010233295692095613
2019-07-18,-0.0022028155473035886
2019-07-19,0.008145621853851738
2019-07-22,0.0012550876818906717
2019-07-23,-0.0010351551343075922
2019-07-24,-0.012231827820780899
2019-07-25,0.0025769969821706033
2019-07-26,-0.0008251439365093067
2019-07-29,0.001850466601607079
2019-07-30,-0.007375176839777415
2019-07-31,-0.002750245815928774
2019-08-01,-0.019610162321446842
2019-08-02,0.005655466839859615
2019-08-05,0.042383517517794685
2019-08-06,-0.001189424201598138
2019-08-07,0.008852741665634717
2019-08-08,-0.019454795052974507
2019-08-09,-0.007154438961066381
2019-08-12,0.006600893773246837
2019-08-13,-0.006249766615538594
2019-08-14,0.021911698031473144
2019-08-15,-0.0215454644417929
2019-08-16,-0.0034122912709868363
2019-08-19,-0.016656718363075054
2019-08-20,0.0026869847540718925
2019-08-21,-0.006366225115638781
2019-08-22,0.007030205132049399
2019-08-23,0.029724118723496323
2019-08-26,-0.010517576174020618
2019-08-27,0.010240799420448901
2019-08-28,-0.006880402682587164
2019-08-29,-0.013529322542335397
2019-08-30,0.0031358671328476214
2019-09-03,-0.024360390389156432
2019-09-04,0.007682416434036606
2019-09-05,-0.009540460531046235
2019-09-06,-0.006170929490230929
2019-09-09,-0.009719889362277577
2019-09-10,0.002817949181875553
2019-09-11,-0.013639481791371115
2019-09-12,-0.010320371440763795
2019-09-13,0.007610316072478428
2019-09-16,-0.010227824702633457
2019-09-17,-0.005250391184445738
2019-09-18,0.009552088380702315
2019-09-19,-0.005958505261690666
2019-09-20,0.003923172643224385
2019-09-23,-0.0005424566917072648
2019-09-24,0.005945548745390286
2019-09-25,0.0036315224421068684
2019-09-26,-0.004191979850961198
2019-09-27,0.0028614464781412064
2019-09-30,-0.009727621600683328
2019-10-01,0.008651035532969618
2019-10-02,0.007636849048744109
2019-10-03,-0.01372004816035831
2019-10-04,-0.0024681815236993784
2019-10-07,0.0021665153234824265
2019-10-08,0.005568751493653684
2019-10-09,0.003225820577055004
2019-10-10,-0.007927148081356517
2019-10-11,-0.006324249609685943
2019-10-14,0.0005545182580699891
2019-10-15,-0.011540211798778108
2019-10-16,0.001975694877946679
2019-10-17,0.002694382328563203
2019-10-18,0.008657010655848812
2019-10-21,-0.003709372135337469
2019-10-22,-0.008183062689586336
2019-10-23,0.00019947859048103636
2019-10-24,-0.002338513022221342
2019-10-25,0.009605352477343194
2019-10-28,0.0056952720106937535
2019-10-29,0.0009360705563652499
2019-10-30,-0.001260546756053616
2019-10-31,-0.005364275100392633
2019-11-01,-0.06688558651819582
2019-11-04,-0.011210044406573425
2019-11-05,0.007641202597400023
2019-11-06,-0.00030953280521675265
2019-11-07,0.006110802492404807
2019-11-08,-0.0032974131216893373
2019-11-11,0.001682185189749034
2019-11-12,-0.0077146168483158625
2019-11-13,-8.48102223747425e-05
2019-11-14,0.002686824716122742
2019-11-15,-0.013842880738937418
2019-11-18,-0.0009273600125310356
2019-11-19,0.0021322031026573033
2019-11-20,0.0016904156640744523
2019-11-21,0.01430231047565492
2019-11-22,-0.011181003820366965
2019-11-25,0.002380049030965501
2019-11-26,0.0006174185801720315
2019-11-27,-0.0044406888006128815
2019-11-29,-0.0015794893103345368
2019-12-02,0.010779001482162692
2019-12-03,0.009533929449254287
2019-12-04,-0.022473224957053107
2019-12-05,-0.002045264683470909
2019-12-06,-0.006355948764131746
2019-12-09,0.00917048498302806
2019-12-10,-0.0012789917132271242
2019-12-11,0.0006217692589005662
2019-12-12,0.009889398681800428
2019-12-13,-0.006996482621817259
2019-12-16,-0.01275326723450032
2019-12-17,-0.00940370510129286
2019-12-18,-0.0042119773899182925
2019-12-19,-0.005839480693258864
2019-12-20,-7.64349969844973e-05
2019-12-23,0.01333103263887728
2019-12-24,-0.007899904163058274
2019-12-26,-0.004195812006429838
2019-12-27,-0.0033134611437108507
2019-12-30,0.013275762378398942
2019-12-31,-0.008155843417577987
2020-01-02,-0.00042531338059169745
2020-01-03,0.007860472080467371
2020-01-06,-0.0016406925664502578
2020-01-07,-0.00020916780541659714
2020-01-08,-0.0025365744975245188
2020-01-09,0.0002341660210047011
2020-01-10,0.00981322031373643
2020-01-13,-0.012498349477793153
2020-01-14,-0.0012105965222920364
2020-01-15,-0.015018532335667661
2020-01-16,-0.0009084393425408225
2020-01-17,-0.015706721563851903
2020-01-21,-0.021622730006702326
2020-01-22,-0.0017923578544121609
2020-01-23,0.008804363706125373
2020-01-24,0.009031832836804806
2020-01-27,0.009649169595417626
2020-01-28,-0.012403655796429243
2020-01-29,0.004933137202629201
2020-01-30,-0.013030273697286236
2020-01-31,0.019320426335986095
2020-02-03,0.0030108516376459084
2020-02-04,-0.012217070540991613
2020-02-05,-0.013431884296970346
2020-02-06,-0.005013677695679304
2020-02-07,0.0013780640954076944
2020-02-10,-0.019282493401775215
2020-02-11,-0.0013323223099071294
2020-02-12,-0.014850256591148208
2020-02-13,-0.0017904271470108968
2020-02-14,-0.006632213435987403
2020-02-18,-0.012894188948286804
2020-02-19,0.004734330608014729
2020-02-20,-0.0012388506880816428
2020-02-21,-0.019539516880994603
2020-02-24,0.04310171181219626
2020-02-25,0.0590174791963636
2020-02-26,-0.002401565992953505
2020-02-27,0.08597418196754404
2020-02-28,0.04907567655492161
2020-03-02,-0.07953629760621583
2020-03-03,0.024009316803182558
2020-03-04,-0.02666845798762878
2020-03-05,0.0034377085391683517
2020-03-06,0.047930095452634845
2020-03-09,0.029295410403487144
2020-03-10,-0.019774221141417733
2020-03-11,0.02102611718943938
2020-03-12,0.08034725268225454
2020-03-13,-0.07194773454531894
2020-03-16,0.02558917461918196
2020-03-17,0.017021771033891516
2020-03-18,0.04552507047148711
2020-03-19,0.04929681708020492
2020-03-20,-0.004017365259660592
2020-03-23,-0.05478690749514117
2020-03-24,-0.0371165942969012
2020-03-25,0.009265494790526286
2020-03-26,-0.0018024841899953062
2020-03-27,-0.00771330738676208
2020-03-30,0.027638316424647067
2020-03-31,0.010089290405048123
2020-04-01,0.005791766316315507
2020-04-02,-0.02856743594564158
2020-04-03,-0.010050710478993998
2020-04-06,0.010924427696234444
2020-04-07,0.009062149167888152
2020-04-08,-0.008613852235710248
2020-04-09,0.009960338836148941
2020-04-13,-0.029908849863888434
2020-04-14,-0.01909946243107169
2020-04-15,-0.006910111529990651
2020-04-16,0.0002367960604130184
2020-04-17,-0.017138483210239613
2020-04-20,0.06025326940483751
2020-04-21,0.018240540513919996
2020-04-22,-0.015272184759076454
2020-04-23,-0.009193998121205395
2020-04-24,-0.021391262526144404
2020-04-27,0.06679066079579364
2020-04-28,-0.006675209464309047
2020-04-29,-0.0197092656574172
2020-04-30,-0.009724464267723549
2020-05-01,0.014123529860321223
2020-05-04,0.005387126571275917
2020-05-05,-0.021801766164099515
2020-05-06,0.00884879923343745
2020-05-07,0.00046224221177770445
2020-05-08,-0.0009801868067725761
2020-05-11,-0.011915359385378646
2020-05-12,-0.004213533868750188
2020-05-13,0.002457825668968324
2020-05-14,-0.008383551310565606
2020-05-15,-0.015265078008735174
2020-05-18,-0.0042020931827669444
2020-05-19,0.012677255532056982
2020-05-20,-0.0038721332485879586
2020-05-21,0.014212623002203634
2020-05-22,-0.002266879965696195
2020-05-26,0.029227310176928947
2020-05-27,0.01110481987121615
2020-05-28,-0.015530388971096078
2020-05-29,-0.005411687562910249
2020-06-01,-0.0026938410668161297
2020-06-02,-0.0010866740843495943
2020-06-03,-0.00148422413428136
2020-06-04,-0.006177823937996634
2020-06-05,-0.012633636094979049
2020-06-08,-0.011927676363642389
2020-06-09,0.004567890934141274
2020-06-10,0.0032567386513661697
2020-06-11,-0.006900960812245938
2020-06-12,0.0018601687788861211
2020-06-15,-0.008869262075712717
2020-06-16,-0.0026852424517232985
2020-06-17,0.0006925447422798242
2020-06-18,0.0002581698650591282
2020-06-19,0.008869671295103387
2020-06-22,0.0006439815892711245
2020-06-23,-0.001381217544185493
2020-06-24,0.012223459968202746
2020-06-25,0.0061836467594270535
2020-06-26,0.019672976363487516
2020-06-29,-0.004624381628793936
2020-06-30,0.01140394575784872
2020-07-01,0.001987469043807385
2020-07-02,0.014718406283317834
2020-07-06,-0.005504126918487035
2020-07-07,0.005146500133090268
2020-07-08,-0.017786754891795497
2020-07-09,0.019921871797616834
2020-07-10,-0.0021775840669741296
2020-07-13,-0.0148299116296591
2020-07-14,0.00661500783762999
2020-07-15,0.0016778004489071364
2020-07-16,-0.0064809431285592235
2020-07-17,0.009244332117818416
2020-07-20,0.00644310834450446
2020-07-21,-0.01645963315502919
2020-07-22,-0.006756575905815422
2020-07-23,0.0009637732054961339
2020-07-24,0.010394857260576831
2020-07-27,0.0017297254723962871
2020-07-28,-0.009457640619657766
2020-07-29,-0.0032856297757088214
2020-07-30,0.0014031293764068874
2020-07-31,-0.02002467491018632
2020-08-03,0.02693235127181557
2020-08-04,-0.005088895961914714
2020-08-05,-0.007251500607629391
2020-08-06,-0.0032305930101858434
2020-08-07,0.005664046621238873
2020-08-10,-0.022530535752866156
2020-08-11,0.00326298174654705
2020-08-12,-0.001773403208310909
2020-08-13,0.00645818162339123
2020-08-14,0.00010507489136321276
2020-08-17,-0.00669261722740905
2020-08-18,-0.0019973888989526013
2020-08-19,0.0037742387674318486
2020-08-20,0.002519687881720893
2020-08-21,0.002450186855156018
2020-08-24,0.004579714036481018
2020-08-25,-0.00973728847853233
2020-08-26,0.0036185326912647675
2020-08-27,0.005349525794131245
2020-08-28,-0.022808736187874518
2020-08-31,0.006547338492760744
2020-09-01,0.007799366739712672
2020-09-02,0.0001200711913940649
2020-09-03,0.0041094041944767165
2020-09-04,0.002254798435329609
2020-09-08,0.0054533689360742555
2020-09-09,-0.008232973744412106
2020-09-10,0.012875922099493106
2020-09-11,0.003496479736480507
2020-09-14,-0.011055536191425921
2020-09-15,-0.00929208656430332
2020-09-16,-0.0030010928615534483
2020-09-17,-0.010541548738466935
2020-09-18,0.004123824044770855
2020-09-21,0.010321656069309057
2020-09-22,0.003078610391962111
2020-09-23,0.006883376047425829
2020-09-24,-0.002383963094769241
2020-09-25,-0.01903431536105936
2020-09-28,-0.016423799421969247
2020-09-29,0.010492212023593553
2020-09-30,-0.01305130311622893
2020-10-01,0.0017562576103125347
2020-10-02,-0.00011867107538521965
2020-10-05,-0.006771171062089729
2020-10-06,0.016849932055698864
2020-10-07,-0.02003368477228105
2020-10-08,0.00020732792673086283
2020-10-09,-0.009946494785698246
2020-10-12,-0.004397595766393916
2020-10-13,0.005239706563768199
2020-10-14,-0.0012731767906320629
2020-10-15,0.0037297966514336475
2020-10-16,-0.005416825459193471
2020-10-19,0.01062376257479307
2020-10-20,0.014692949530094254
2020-10-21,0.007780021607970942
