Date,ATR,IWF,IWM,MTUM,SPY,VLUE,VXX
2018-09-24,1.0,-0.27202363044607936,-0.49210950961354377,-0.022126193146076636,-0.4769028799606159,-0.4718431200940842,0.0
2018-09-25,1.0,-0.27312245400114826,-0.49088224840746914,-0.024058834786887938,-0.47576345791070895,-0.4701041638187932,0.0
2018-09-26,1.0,-0.2729093503072871,-0.492345258999122,-0.01945237050043898,-0.47977941176470584,-0.47914837576821767,0.0
2018-09-27,1.0,-0.27407062177870384,-0.4886226559929817,-0.020506634499396863,-0.47954819607413096,-0.47878056804474173,0.0
2018-09-28,1.0,-0.27223364870423694,-0.49058000822706704,-0.021061291649526945,-0.47952831482243247,-0.4789524201288908,0.0
2018-10-01,1.0,-0.2738075635325759,-0.4897359899006532,-0.02082990284867446,-0.48076184203304245,-0.4792524287831385,0.0
2018-10-02,1.0,-0.2741143217804122,-0.48706127713289976,-0.022090502456024806,-0.4811338876540161,-0.47976180675612634,0.0
2018-10-03,1.0,-0.2737971141712844,-0.48074285400779065,-0.02123223788884622,-0.48348603719756406,-0.4838975146760301,0.0
2018-10-04,1.0,-0.2765193067134708,-0.47619569986836324,-0.02180232558139535,-0.4869734532689776,-0.4809675296182536,0.0
2018-10-05,1.0,-0.2706454610045363,-0.47204459747499594,-0.014838498114444992,-0.49024430234464667,-0.4849428868120457,0.0
2018-10-08,1.0,-0.2692549041006193,-0.46948408042997847,-0.011840777016888113,-0.4930565028783455,-0.4846806536981966,0.0
2018-10-09,1.0,-0.267949242734343,-0.46999590667212443,-0.008213944603629418,-0.495156228680584,-0.48754263883203713,0.0
2018-10-10,1.0,-0.2675091143334886,-0.47622049834160246,-0.004659959979167237,-0.4976563142457717,-0.4951070420218744,0.0
2018-10-11,1.0,-0.23888097605546746,-0.46542688989814845,-0.0,-0.48668404504044505,-0.4963854774125931,0.0
2018-10-12,1.0,-0.2432992429273476,-0.4579625448266702,-0.0,-0.4734758932129101,-0.48165759064948865,0.0
2018-10-15,1.0,-0.22393955461293746,-0.47523860021208914,-0.0,-0.4696977730646872,-0.4822110286320255,0.0
2018-10-16,1.0,-0.21985890839654165,-0.4823370285896144,-0.0,-0.4687317668275606,-0.48119662653158646,0.0
2018-10-17,1.0,-0.2158482201757395,-0.4747605351347073,-0.0,-0.46676517930179173,-0.4813573633796871,0.0
2018-10-18,1.0,-0.21613346003589903,-0.47579453067257943,-0.0,-0.4662126491394784,-0.4814961461302924,0.0
2018-10-19,1.0,-0.20558395595753048,-0.4667715296893433,-0.0,-0.4676104338707563,-0.48160964739808626,0.0
2018-10-22,1.0,-0.20557171685405035,-0.46269360798804937,-0.0,-0.4693503158005084,-0.48313546662473467,0.0
2018-10-23,1.0,-0.20569197306009068,-0.4626693571634477,-0.0,-0.4691946853953196,-0.4830577321208627,0.0
2018-10-24,1.0,-0.2044294353255321,-0.4603000078536087,-0.0,-0.4693054792010262,-0.48380847666169274,0.0
2018-10-25,1.0,-0.19097945434441616,-0.44061302681992337,-0.0,-0.4688215176528067,-0.47100722569364084,0.0
2018-10-26,1.0,-0.18081632653061225,-0.4328316326530612,-0.0,-0.4719132653061224,-0.4654591836734694,0.0
2018-10-29,1.0,-0.17054145387097594,-0.43550067332367814,-0.0,-0.46705795665320027,-0.4677439845516681,0.0
2018-10-30,1.0,-0.16691645286661416,-0.435491655447456,-0.0,-0.46714253054588867,-0.4706480046739655,0.0
2018-10-31,1.0,-0.1686265584300635,-0.4267759148268973,-0.0,-0.4654932605012265,-0.46799686417317854,0.0
2018-11-01,1.0,-0.16080630494089115,-0.432454279074467,-0.0,-0.464888350005052,-0.4678690512276447,0.0
2018-11-02,1.0,-0.16333769370094586,-0.4192996578788489,-0.0,-0.46790098611390624,-0.4650583618434293,0.0
2018-11-05,1.0,-0.15948666331152495,-0.43080020130850527,-0.0,-0.46942627075993965,-0.456618017111223,0.0
2018-11-06,1.0,-0.17055968451387837,-0.44367763789878156,-0.0,-0.465721219475201,-0.44797512513271653,0.0
2018-11-07,1.0,-0.17167360194864506,-0.4458033086369633,-0.0,-0.469501674616868,-0.45031969958388307,0.0
2018-11-08,1.0,-0.15545477450239356,-0.44618291761148904,-0.0,-0.463869992441421,-0.454018644494835,0.0
2018-11-09,1.0,-0.15524147834630792,-0.44609880835411786,-0.0,-0.4641372534199985,-0.4538331695764996,0.0
2018-11-12,1.0,-0.1548333626340508,-0.43797875279403264,-0.0,-0.46660973955848006,-0.45206821207022124,0.0
2018-11-13,1.0,-0.1482714596840814,-0.43645330062332593,-0.0,-0.4671940320925226,-0.4513981024857937,0.0
2018-11-14,1.0,-0.1493852818188647,-0.43588652127100186,-0.0,-0.4675864486566342,-0.45111049903598166,0.0
2018-11-15,1.0,-0.14889466840052015,-0.4360558167450235,-0.0,-0.4690407122136641,-0.4467590277083125,0.0
2018-11-16,1.0,-0.15107173334671956,-0.441569198333417,-0.0,-0.47123638371567694,-0.44603684553988254,0.0
2018-11-19,1.0,-0.1480727163008222,-0.44396670941138017,-0.0,-0.4744914636292776,-0.4478891654723291,0.0
2018-11-20,1.0,-0.12865365365365364,-0.43926426426426424,-0.0,-0.47677677677677677,-0.4578078078078078,0.0
2018-11-21,1.0,-0.13227145093556644,-0.4350570285515494,-0.0,-0.47548641999850905,-0.44208930745719754,0.0
2018-11-23,1.0,-0.13395297977036633,-0.4219394602117401,-0.0,-0.4839952283910731,-0.44535016650926984,0.0
2018-11-26,1.0,-0.13326541261834354,-0.42591258106999974,-0.0,-0.4822453594413935,-0.4434808538130855,0.0
2018-11-27,1.0,-0.12547980485872068,-0.4304747282137639,-0.0,-0.47987915108590673,-0.4405537257621159,0.0
2018-11-28,1.0,-0.1231911038300196,-0.44302132201454564,-0.0,-0.476803931789411,-0.43919874897609645,0.0
2018-11-29,1.0,-0.1101941269215609,-0.43690875049270794,-0.0,-0.4750197083169097,-0.44141702798581,0.0
2018-11-30,1.0,-0.11005197172344146,-0.43693194413655506,-0.0,-0.47530727357816693,-0.4408236656075272,0.0
2018-12-03,1.0,-0.10878877400295421,-0.43727227966518956,-0.0,-0.47520925652387985,-0.44054652880354506,0.0
2018-12-04,1.0,-0.10372863037924936,-0.43974749459618784,-0.0,-0.4731037531931617,-0.4396983690312439,0.0
2018-12-06,1.0,-0.10059883119694091,-0.4031649070488925,-0.0,-0.47605877684519365,-0.42512205093672595,0.0
2018-12-07,1.0,-0.09532872389120432,-0.4052133272302392,-0.0,-0.47828181840082873,-0.43031631694331346,0.0
2018-12-10,1.0,-0.08514458062045192,-0.4056396016851781,-0.0,-0.4786480275756415,-0.4242866717732669,0.0
2018-12-11,1.0,-0.08121961150631124,-0.4075111973365908,-0.0,-0.47778496323441355,-0.4286364398457522,0.0
2018-12-12,1.0,-0.08050025156328613,-0.4079158580703898,-0.0,-0.47765878435036774,-0.42976592635185323,0.0
2018-12-13,1.0,-0.08081485919712403,-0.40843618933493103,-0.0,-0.47731575793888553,-0.43007789095266624,0.0
2018-12-14,1.0,-0.08426575939813594,-0.398926611879148,-0.0,-0.4827610992644416,-0.43000215636006417,0.0
2018-12-17,1.0,-0.07263130239556713,-0.3990780768587738,-0.0,-0.4744799254818601,-0.4422364995581456,0.0
2018-12-18,1.0,-0.0683099764448357,-0.3950367603321516,-0.0,-0.4732446643983916,-0.4427181232006472,0.0
2018-12-19,1.0,-0.06454915593228411,-0.39662849115455134,-0.0,-0.47582085287744946,-0.44401057168027813,0.0
2018-12-20,1.0,-0.06519150152439024,-0.39698456554878053,-0.0,-0.47553830030487804,-0.4441215701219512,0.0
2018-12-21,1.0,-0.06261711059984346,-0.3971205616565072,-0.0,-0.4775740613363061,-0.4345485164014137,0.0
2018-12-24,1.0,-0.05555555555555555,-0.3896447467876039,-0.0,-0.4760015117157974,-0.440854119425548,0.0
2018-12-26,1.0,-0.05233276320790574,-0.3900133029266438,-0.0,-0.4862219688331433,-0.4469545800076017,0.0
2018-12-27,1.0,-0.029904638459401906,-0.37459494491250817,-0.0,-0.4543560781409129,-0.4557216924358856,0.0
2018-12-28,1.0,-0.028989866271806025,-0.3753412613946602,-0.0,-0.4541899958354542,-0.4551154504650409,0.0
2018-12-31,1.0,-0.02853109959274343,-0.3764346538319141,-0.0,-0.4540910773787486,-0.454900962606442,0.0
2019-01-02,1.0,-0.028873092685637546,-0.3767857556322212,-0.0,-0.4548843455509505,-0.45486119150709675,0.0
2019-01-03,1.0,-0.05070846159268745,-0.38130037361656133,-0.0,-0.4912470333905115,-0.4265103273257044,0.0
2019-01-04,1.0,-0.03707691587472497,-0.3855156593792426,-0.0,-0.48738354945929496,-0.43073826131735404,0.0
2019-01-07,1.0,-0.02968854771208583,-0.37311845360586376,-0.0,-0.48671645587181206,-0.42266873222502255,0.0
2019-01-08,1.0,-0.030829984758209784,-0.36850491894138837,-0.0,-0.4886841254445522,-0.421343125028867,0.0
2019-01-09,1.0,-0.03126516464471404,-0.37019064124783363,-0.0,-0.4888041594454072,-0.42054303870595033,0.0
2019-01-10,1.0,-0.032220810717172886,-0.3679870654810024,-0.0,-0.49019517265273127,-0.4193324864303037,0.0
2019-01-11,1.0,-0.034702139965297855,-0.3583111625216888,-0.0,-0.4922151532677848,-0.4282706766917293,0.0
2019-01-14,1.0,-0.037678748816041774,-0.35768244507588887,-0.0,-0.48859934853420195,-0.42620186199089793,0.0
2019-01-15,1.0,-0.034563331405436666,-0.35588201272411796,-0.0,-0.48705610179294384,-0.43597455176402544,0.0
2019-01-16,1.0,-0.033116717929742606,-0.35558844615064406,-0.0,-0.4865983672903032,-0.4373164357901066,0.0
2019-01-17,1.0,-0.03298201821291545,-0.35512873850136367,-0.0,-0.4867332316368511,-0.4364396986086072,0.0
2019-01-18,1.0,-0.034501197312440425,-0.35472996535930995,-0.0,-0.4874340315718504,-0.4481900820682119,0.0
2019-01-22,1.0,-0.0,-0.3219066654271637,-0.0,-0.5557311518081249,-0.4464302314771777,0.0
2019-01-23,1.0,-0.0,-0.30120931099564274,-0.0,-0.5606170049164667,-0.46822937297574385,0.0
2019-01-24,1.0,-0.0,-0.2974277652106993,-0.0,-0.568503533033278,-0.46610386884634214,0.0
2019-01-25,1.0,-0.0,-0.254931394394277,-0.0,-0.628263164067081,-0.4622962354872757,0.0
2019-01-28,1.0,-0.0,-0.2460924665571462,-0.0,-0.6406242666040836,-0.4601267308143629,0.0
2019-01-29,1.0,-0.0,-0.23869329005856205,-0.0,-0.6395493779251629,-0.4736470754251041,0.0
2019-01-30,1.0,-0.0,-0.2236643062284875,-0.0,-0.5817201236489598,-0.38697301207988954,0.0
2019-01-31,1.0,-0.0,-0.22823441713621712,-0.0,-0.5574093968560216,-0.40678783626756704,0.0
2019-02-01,1.0,-0.0,-0.22840577163815254,-0.0,-0.564052445479103,-0.4037511255572881,0.0
2019-02-04,1.0,-0.0,-0.22566196812014228,-0.0,-0.5634962455539455,-0.40642427435998774,0.0
2019-02-05,1.0,-0.0,-0.22160524987380112,-0.0,-0.5609376028795294,-0.4121984943923798,0.0
2019-02-06,1.0,-0.0,-0.2244252684276398,-0.0,-0.5654216893924423,-0.4058801572140614,0.0
2019-02-07,1.0,-0.0,-0.22453998506872777,-0.0,-0.5619208642571693,-0.4093364366957973,0.0
2019-02-08,1.0,-0.0,-0.22588023135624902,-0.0,-0.5734204218073058,-0.3999252270678015,0.0
2019-02-11,1.0,-0.0,-0.21384188260179798,-0.0,-0.5725806451612903,-0.41697514542570063,0.0
2019-02-12,1.0,-0.0,-0.21481465156256888,-0.0,-0.5715167276413805,-0.41755190197029135,0.0
2019-02-13,1.0,-0.0,-0.22424429364589757,-0.0,-0.5673085397021239,-0.4116947210716489,0.0
2019-02-14,1.0,-0.0,-0.21358408935390594,-0.0,-0.5762753018563893,-0.41747787122265634,0.0
2019-02-15,1.0,-0.0,-0.2110381716508631,-0.0,-0.5792719315695245,-0.4199765709612537,0.0
2019-02-19,1.0,-0.0,-0.20249558303886925,-0.0,-0.5875,-0.4185070671378092,0.0
2019-02-20,1.0,-0.0,-0.204091099869668,-0.0,-0.5896971437407498,-0.4152289646336345,0.0
2019-02-21,1.0,-0.0,-0.21496709799938174,-0.0,-0.586516804310383,-0.4067040586494723,0.0
2019-02-22,1.0,-0.0,-0.21237960590262436,-0.0,-0.5960060086595387,-0.4006583016700539,0.0
2019-02-25,1.0,-0.0,-0.20522942494067553,-0.0,-0.6028253975294405,-0.40966046439422504,0.0
2019-02-26,1.0,-0.0,-0.2075957229690758,-0.0,-0.6034651049292338,-0.40729402369226675,0.0
2019-02-27,1.0,-0.0,-0.2082279323658634,-0.0,-0.6048018461811566,-0.40593795766209556,0.0
2019-02-28,1.0,-0.0,-0.2093967774867948,-0.0,-0.6052643259798483,-0.4046784144879933,0.0
2019-03-01,1.0,-0.0,-0.21153077981447782,-0.0,-0.6079401713195154,-0.39969375527051615,0.0
2019-03-04,1.0,-0.0,-0.20464186563020545,-0.0,-0.6017545807884509,-0.41456968350916157,0.0
2019-03-05,1.0,-0.0,-0.19394411666481132,-0.0,-0.6194589780696872,-0.41302460202604924,0.0
2019-03-06,1.0,-0.0,-0.19246694270068115,-0.0,-0.6208539245803837,-0.412759894928988,0.0
2019-03-07,1.0,-0.0,-0.1903405930902538,-0.0,-0.6238570888300594,-0.41042468465662607,0.0
2019-03-08,1.0,-0.0,-0.1821794556942243,-0.0,-0.6411332633788037,-0.4092786497287402,0.0
2019-03-11,1.0,-0.0,-0.18320644972938982,-0.0,-0.6379662691728986,-0.424554784522446,0.0
2019-03-12,1.0,-0.0,-0.16794117647058823,-0.0,-0.6475113122171946,-0.44699095022624435,0.0
2019-03-13,1.0,-0.0,-0.1772042619896858,-0.0,-0.6497716791239748,-0.444850853079492,0.0
2019-03-14,1.0,-0.0,-0.17805886093196474,-0.0,-0.6496502861295305,-0.44313743300935604,0.0
2019-03-15,1.0,-0.0,-0.1759160400717839,-0.0,-0.6536198632470867,-0.44208445968969357,0.0
2019-03-18,1.0,-0.0,-0.1815136391604567,-0.0,-0.6541555570748161,-0.44322143980310386,0.0
2019-03-19,1.0,-0.0,-0.18189896780367762,-0.0,-0.6537015517123521,-0.4429785585708752,0.0
2019-03-20,1.0,-0.0,-0.1851716581446311,-0.0,-0.6509085098612125,-0.44660792549306055,0.0
2019-03-21,1.0,-0.0,-0.18450656018254422,-0.0,-0.6692983456930977,-0.4280205362236167,0.0
2019-03-22,1.0,-0.0,-0.18496144252991922,-0.0,-0.6739205052515961,-0.42939520834763506,0.0
2019-03-25,1.0,-0.0,-0.16454689984101747,-0.0,-0.6779014308426073,-0.42873041108335225,0.0
2019-03-26,1.0,-0.0,-0.16812439261418854,-0.0,-0.6787352814880104,-0.41318055461387215,0.0
2019-03-27,1.0,-0.0,-0.16735191795057153,-0.0,-0.6794379433425203,-0.4122803054262865,0.0
2019-03-28,1.0,-0.0,-0.16637656260596334,-0.0,-0.676967244614237,-0.41718470963220833,0.0
2019-03-29,1.0,-0.0,-0.16781983448650115,-0.0,-0.6765703432370099,-0.4167005833672501,0.0
2019-04-01,1.0,-0.0,-0.1712764517438975,-0.0,-0.6766908811983937,-0.4080449397644723,0.0
2019-04-02,1.0,-0.0,-0.17187043405938815,-0.0,-0.6721738934969766,-0.40380335828444264,0.0
2019-04-03,1.0,-0.0,-0.17332284526351274,-0.0,-0.6666591751882234,-0.40743903809416787,0.0
2019-04-04,1.0,-0.0,-0.1730522909597537,-0.0,-0.6685917170400665,-0.4054965056965012,0.0
2019-04-05,1.0,-0.0,-0.17072402465913694,-0.0,-0.66912658056968,-0.4100706475273365,0.0
2019-04-08,1.0,-0.0,-0.1695872230345293,-0.0,-0.6693735237881003,-0.41050500506129795,0.0
2019-04-09,1.0,-0.0,-0.1689202870834927,-0.0,-0.6703489549350913,-0.4105788917137265,0.0
2019-04-10,1.0,-0.0,-0.16536194718135602,-0.0,-0.6706258154496784,-0.41352859135285913,0.0
2019-04-11,1.0,-0.0,-0.16396469422678553,-0.0,-0.6797036836890931,-0.40797532198504904,0.0
2019-04-12,1.0,-0.0,-0.1633820581544629,-0.0,-0.6790918714385459,-0.4098290502038334,0.0
2019-04-15,1.0,-0.0,-0.1638900786762551,-0.0,-0.6783290876710476,-0.4121147906850921,0.0
2019-04-16,1.0,-0.0,-0.16559188275084555,-0.0,-0.6772040586245772,-0.4119954904171364,0.0
2019-04-17,1.0,-0.0,-0.17171944682192894,-0.0,-0.679017072841119,-0.40161718996351187,0.0
2019-04-18,1.0,-0.0,-0.1849798273491559,-0.0,-0.6862307570942368,-0.3827168841706674,0.0
2019-04-22,1.0,-0.0,-0.1838660166124955,-0.0,-0.6878611412062117,-0.3854053810039726,0.0
2019-04-23,1.0,-0.0,-0.18164781322676057,-0.0,-0.6931969563548511,-0.3830522251574883,0.0
2019-04-24,1.0,-0.0,-0.18548332544138538,-0.0,-0.6866896660578592,-0.3826692822837043,0.0
2019-04-25,1.0,-0.0,-0.18709721032944251,-0.0,-0.6855198521790076,-0.3807517238271216,0.0
2019-04-26,1.0,-0.0,-0.18573296658700456,-0.0,-0.6871308112007936,-0.38174685484961896,0.0
2019-04-29,1.0,-0.0,-0.1958634719710669,-0.0,-0.6927893309222423,-0.3717450271247739,0.0
2019-04-30,1.0,-0.0,-0.18768063583815028,-0.0,-0.6925126445086704,-0.37775469653179194,0.0
2019-05-01,1.0,-0.0,-0.19291445055440368,-0.0,-0.6793698728928153,-0.38138916433787073,0.0
2019-05-02,1.0,-0.0,-0.18174236447650174,-0.0,-0.6822044404372817,-0.39010481235207933,0.0
2019-05-03,1.0,-0.0,-0.18571847044773426,-0.0,-0.6788120507447216,-0.38876495639829645,0.0
2019-05-06,1.0,-0.0,-0.17340506956012786,-0.0,-0.6812615370762235,-0.3964702174598172,0.0
2019-05-07,1.0,-0.0,-0.18117477347518368,-0.0,-0.6788080962899518,-0.39399540188432586,0.0
2019-05-08,1.0,-0.0,-0.18600782338923608,-0.0,-0.6631671237804055,-0.3989254080302145,0.0
2019-05-09,1.0,-0.0,-0.18557813342923934,-0.0,-0.6653929149433555,-0.3968485883833843,0.0
2019-05-10,1.0,-0.0,-0.18518435201223765,-0.0,-0.665219445256788,-0.39916316109148986,0.0
2019-05-13,1.0,-0.0,-0.1844769403824522,-0.0,-0.6654218222722159,-0.39982002249718784,0.0
2019-05-14,1.0,-0.0,-0.16874832723704167,-0.0,-0.6674101168703721,-0.3941921670086538,0.0
2019-05-15,1.0,-0.0,-0.16990984557707756,-0.0,-0.6766937427474784,-0.3849415335178077,0.0
2019-05-16,1.0,-0.0,-0.16907986921999066,-0.0,-0.6709370343186316,-0.38415515669135475,0.0
2019-05-17,1.0,-0.0,-0.16556438862538134,-0.0,-0.670229585587993,-0.39103035161556104,0.0
2019-05-20,1.0,-0.0,-0.16061185468451242,-0.0,-0.6719284983769842,-0.3907688203121526,0.0
2019-05-21,1.0,-0.0,-0.16176143689147734,-0.0,-0.6706753212110435,-0.39047703730049355,0.0
2019-05-22,1.0,-0.0,-0.15681525265543753,-0.0,-0.6756366383716279,-0.38967157015243764,0.0
2019-05-23,1.0,-0.0,-0.15133419171513562,-0.0,-0.6782622208409181,-0.3903565244416818,0.0
2019-05-24,1.0,-0.0,-0.13691834067905473,-0.004296693317977453,-0.6793647981218578,-0.3942105379725809,0.0
2019-05-28,1.0,-0.0,-0.13269690794719588,-0.005160804465314079,-0.6809382475414193,-0.39614157880747763,0.0
2019-05-29,1.0,-0.0,-0.1362721906572635,-0.005814339088718414,-0.6827758494904163,-0.3859350474211306,0.0
2019-05-30,1.0,-0.0,-0.13529879773691655,-0.0039559759547383305,-0.6832346181046676,-0.3875309405940594,0.0
2019-05-31,1.0,-0.0,-0.13175638333149112,-0.0076047308500055266,-0.68502265944512,-0.3862716922736819,0.0
2019-06-03,1.0,-0.0,-0.13475427162233572,-0.019222300510833186,-0.6834595737185133,-0.36443103751981676,0.0
2019-06-04,1.0,-0.0,-0.1352923036257104,-0.016476496761971892,-0.6795453544208996,-0.3714260540111899,0.0
2019-06-05,1.0,-0.0,-0.13577520227421824,-0.023791821561338293,-0.679991253006779,-0.34719002842772795,0.0
2019-06-06,1.0,-0.0,-0.1326825424619156,-0.02948257748205218,-0.6846436701103135,-0.3419497461040098,0.0
2019-06-07,1.0,-0.0,-0.11347938938014164,-0.03442435440587743,-0.6989573709911574,-0.3527781443843209,0.0
2019-06-10,1.0,-0.0,-0.11143630482142464,-0.028915344497502368,-0.7081398675263516,-0.352067425125982,0.0
2019-06-11,1.0,-0.0,-0.11047858608592044,-0.03541404646852452,-0.7073983363120849,-0.3531916771474592,0.0
2019-06-12,1.0,-0.0,-0.11163345030788585,-0.03747599814606369,-0.7072546293230926,-0.35068088017833104,0.0
2019-06-13,1.0,-0.0,-0.1121131741821397,-0.03848364279398762,-0.703868258178603,-0.35596816976127316,0.0
2019-06-14,1.0,-0.0,-0.10328659264829478,-0.045030300349449284,-0.7137612243995223,-0.3496262219666475,0.0
2019-06-17,1.0,-0.0,-0.10473010327060436,-0.044603171093076224,-0.7086309457995179,-0.35337564405917604,0.0
2019-06-18,1.0,-0.0,-0.1052654857471417,-0.04531281098653221,-0.707335412105531,-0.3535460757646123,0.0
2019-06-19,1.0,-0.0,-0.09675281643472498,-0.059023635962005744,-0.7085707974375967,-0.3446211619173846,0.0
2019-06-20,1.0,-0.0,-0.09847228670602022,-0.05555924034401185,-0.7109725630651544,-0.345868983661648,0.0
2019-06-21,1.0,-0.0,-0.10267797958372,-0.05587962349197932,-0.7057094878253569,-0.3452870210791462,0.0
2019-06-24,1.0,-0.0,-0.10252045102807872,-0.05719655096175105,-0.7039796595180191,-0.347225292947159,0.0
2019-06-25,1.0,-0.0,-0.11039936384520233,-0.05652500441774165,-0.6978706485244742,-0.34407580844672203,0.0
2019-06-26,1.0,-0.0,-0.11110617996227672,-0.0467324975036059,-0.6782869188949295,-0.3828913791190503,0.0
2019-06-27,1.0,-0.0,-0.11384992206635494,-0.06199064796259185,-0.6883990202627477,-0.36243598307726566,0.0
2019-06-28,1.0,-0.0,-0.12706270627062707,-0.05623940772455624,-0.6832575149406832,-0.3633930960663634,0.0
2019-07-01,1.0,-0.0,-0.1280008924587238,-0.05649263721552878,-0.671954484605087,-0.3746764837126283,0.0
2019-07-02,1.0,-0.0,-0.13107055419541508,-0.05228132650790118,-0.6655018918317382,-0.3768306254173158,0.0
2019-07-03,1.0,-0.0,-0.13663489801371692,-0.04767524717199608,-0.662554555981117,-0.37991003830052555,0.0
2019-07-05,1.0,-0.0,-0.11247439209049613,-0.06190433775719248,-0.6680324218402066,-0.3843858555268549,0.0
2019-07-08,1.0,-0.0,-0.10696450864990191,-0.06703673978954877,-0.6717718922775102,-0.38358302122347065,0.0
2019-07-09,1.0,-0.0,-0.10557968593384563,-0.06659984408063259,-0.6705423766566432,-0.3846976277981958,0.0
2019-07-10,1.0,-0.0,-0.0942652170038321,-0.06314054005881829,-0.6829605204527225,-0.38759914446127797,0.0
2019-07-11,1.0,-0.0,-0.09247781691710885,-0.0683996967940429,-0.6832612476033353,-0.3852945110803942,0.0
2019-07-12,1.0,-0.0,-0.08466315016358415,-0.07188800605372683,-0.6924172620239923,-0.37666644410318045,0.0
2019-07-15,1.0,-0.0,-0.19189623172689926,-0.1426188142556253,-0.5159218401351323,-0.2349383771609701,0.0
2019-07-16,1.0,-0.0,-0.19485179081749726,-0.14393291474582284,-0.5148417780929933,-0.23233692817956156,0.0
2019-07-17,1.0,-0.0,-0.199244826435247,-0.1418975300400534,-0.514331608811749,-0.23061999332443256,0.0
2019-07-18,1.0,-0.0,-0.20001250599245474,-0.14452758613502303,-0.5133918335869271,-0.22640015007190945,0.0
2019-07-19,1.0,-0.0,-0.20013345010217273,-0.14614871345760874,-0.5115726260477919,-0.2273030568414029,0.0
2019-07-22,1.0,-0.0,-0.2078717201166181,-0.14975010412328196,-0.5088088296543106,-0.2160558100791337,0.0
2019-07-23,1.0,-0.0,-0.21025993501624593,-0.14890027493126717,-0.5079563442472715,-0.2157169041073065,0.0
2019-07-24,1.0,-0.0,-0.20946945237152914,-0.14872831045472537,-0.508071739537984,-0.21676005582519217,0.0
2019-07-25,1.0,-0.0,-0.189343561735215,-0.15861666423464177,-0.5293406433053303,-0.20731275145400344,0.0
2019-07-26,1.0,-0.0,-0.18235024577189038,-0.15816879113554944,-0.5326376739148546,-0.2096767474797967,0.0
2019-07-29,1.0,-0.0,-0.19199900195450578,-0.15989520522310474,-0.526822472657712,-0.20054476649893957,0.0
2019-07-30,1.0,-0.0,-0.18857142857142856,-0.16097662337662336,-0.5252155844155844,-0.20315844155844154,0.0
2019-07-31,1.0,-0.0,-0.17895569290961685,-0.16209860356704336,-0.5301034317704106,-0.2099644128113879,0.0
2019-08-01,1.0,-0.0,-0.17402217109391338,-0.16977619744823258,-0.5304957121941016,-0.21731855260405772,0.0
2019-08-02,1.0,-0.0,-0.1798284531203786,-0.14930071407444964,-0.5452740102252082,-0.2382219968732835,0.0
2019-08-05,1.0,-0.0,-0.17758842511547465,-0.14753337692194124,-0.5517685023094931,-0.23223588467297998,0.0
2019-08-06,1.0,-0.0,-0.1784245359834645,-0.1496753450111698,-0.5235818527256404,-0.23613169927135313,0.0
2019-08-07,1.0,-0.0,-0.176708341186572,-0.15310674122007914,-0.5297690100730874,-0.23459194571841427,0.0
2019-08-08,1.0,-0.0,-0.17760658284178932,-0.15793782405172233,-0.5317282058817355,-0.23184785574844144,0.0
2019-08-09,1.0,-0.0,-0.1717459055826309,-0.15710431090380472,-0.5247965864167835,-0.2380304963500596,0.0
2019-08-12,1.0,-0.0,-0.17263986929473615,-0.1524894744559184,-0.5259211160218681,-0.2435851783582246,0.0
2019-08-13,1.0,-0.0,-0.17092514700650804,-0.15106618954945905,-0.5281771193002281,-0.2424299495678741,0.0
2019-08-14,1.0,-0.0,-0.1737151922514925,-0.15158852753308563,-0.5203941051225316,-0.24170250073059743,0.0
2019-08-15,1.0,-0.0,-0.1826803611364201,-0.15621635053424995,-0.5073925287832353,-0.22444711339352272,0.0
2019-08-16,1.0,-0.0,-0.18471548758755024,-0.15485515354967053,-0.5031911807368726,-0.2294127398566041,0.0
2019-08-19,1.0,-0.0,-0.18402799345715054,-0.15535126405366792,-0.5034267138745677,-0.22771600720541646,0.0
2019-08-20,1.0,-0.0,-0.19327505875561787,-0.14855894116191812,-0.5040407372283842,-0.21574650558693773,0.0
2019-08-21,1.0,-0.0,-0.1903264911956276,-0.18471717109453656,-0.47584704842918485,-0.20380529700630792,0.0
2019-08-22,1.0,-0.0,-0.19257693018290806,-0.17898712869254615,-0.47412395048549666,-0.20715209492332642,0.0
2019-08-23,1.0,-0.0,-0.19217819749538084,-0.17686306713200575,-0.4743789776226648,-0.2095257647300349,0.0
2019-08-26,1.0,-0.0,-0.18366598778004073,-0.1785743380855397,-0.47246435845213847,-0.2019348268839104,0.0
2019-08-27,1.0,-0.0,-0.18243050750885187,-0.17838101827357453,-0.47094135362826095,-0.20316633429652842,0.0
2019-08-28,1.0,-0.0,-0.17581635557724373,-0.18455939164735066,-0.4765157984628523,-0.1963929893050303,0.0
2019-08-29,1.0,-0.0,-0.17880109544578557,-0.18687493660614665,-0.4748757480474693,-0.18805152652398824,0.0
2019-08-30,1.0,-0.0,-0.1692326367112424,-0.1893422889396913,-0.48313742944425336,-0.18137125978676483,0.0
2019-09-03,1.0,-0.0,-0.16815090673575128,-0.18994899611398963,-0.4802258743523316,-0.18565819300518135,0.0
2019-09-04,1.0,-0.0,-0.1806785859406745,-0.18935392117025598,-0.4833604225924421,-0.17830150345388054,0.0
2019-09-05,1.0,-0.0,-0.17404496212429746,-0.18697564551600554,-0.48717113301295106,-0.18813635252911948,0.0
2019-09-06,1.0,-0.0,-0.1698519843851659,-0.19465679895901108,-0.4992680546519193,-0.16940468445022772,0.0
2019-09-09,1.0,-0.0,-0.17198332825048288,-0.19501880654671142,-0.49909525261766796,-0.16704279760089458,0.0
2019-09-10,1.0,-0.0,-0.16058230683090705,-0.2312735416878754,-0.5102514506769826,-0.13393057110862264,0.0
2019-09-11,1.0,-0.0,-0.16835119337554796,-0.23950722519889595,-0.5012583211560319,-0.12043351193375547,0.0
2019-09-12,1.0,-0.0,-0.1508434321904878,-0.24509266589529666,-0.5081907313805493,-0.12577390739500233,0.0
2019-09-13,1.0,-0.0,-0.14946380697050937,-0.23919489804208302,-0.5090381022016411,-0.13333739540173856,0.0
2019-09-16,1.0,-0.0,-0.15259054734448596,-0.2377375345135618,-0.5067199935033295,-0.13314114016566508,0.0
2019-09-17,1.0,-0.0,-0.1360061932119138,-0.24151489222996372,-0.5129161064254574,-0.14680356924581348,0.0
2019-09-18,1.0,-0.0,-0.14293277944081292,-0.24462907528458264,-0.5085629340012625,-0.1402447716211538,0.0
2019-09-19,1.0,-0.0,-0.14057371200228344,-0.24736488001794124,-0.5120797569777162,-0.13875919998368977,0.0
2019-09-20,1.0,-0.0,-0.14395871157259132,-0.24952571346973745,-0.5077211807184676,-0.13873645988453928,0.0
2019-09-23,1.0,-0.0,-0.14625538078625783,-0.25370789726013426,-0.49988779403064243,-0.14023706061162453,0.0
2019-09-24,1.0,-0.0,-0.1482138487888427,-0.2610105211646685,-0.4925780931408531,-0.13720332762417423,0.0
2019-09-25,1.0,-0.0,-0.14121873985060085,-0.2658939590776226,-0.49685368626177323,-0.1259134459240013,0.0
2019-09-26,1.0,-0.0,-0.13671549604827404,-0.265893252605701,-0.514191673947053,-0.11493528921757858,0.0
2019-09-27,1.0,-0.0,-0.1297324892791505,-0.2634878497039003,-0.5247090055135798,-0.12417806820502349,0.0
2019-09-30,1.0,-0.0,-0.10447241838092315,-0.28404462184013923,-0.5229147477228533,-0.1354620816702487,0.0
2019-10-01,1.0,-0.0,-0.09349660086821197,-0.2938406093865181,-0.5194119092472765,-0.14092063232041938,0.0
2019-10-02,1.0,-0.0,-0.083083999918585,-0.286316175123649,-0.5239665384380533,-0.1420081007917608,0.0
2019-10-03,1.0,-0.0,-0.07704213591837566,-0.28566482699631385,-0.5298454269596562,-0.1439830560250901,0.0
2019-10-04,1.0,-0.0,-0.08613338229593814,-0.2891037803211131,-0.5199012587469654,-0.1449701124099802,0.0
2019-10-07,1.0,-0.0,-0.08893749233473693,-0.2975552920976248,-0.516045950697028,-0.14151097665671886,0.0
2019-10-08,1.0,-0.0,-0.08856179086169887,-0.29947868751916595,-0.5147091894102014,-0.1416334457732802,0.0
2019-10-09,1.0,-0.0,-0.09029423784225582,-0.3007355946056396,-0.5140375970576216,-0.13827135267674703,0.0
2019-10-10,1.0,-0.0,-0.0877128356254093,-0.30271774721676487,-0.5150622134905043,-0.14102406679764243,0.0
2019-10-11,1.0,-0.0,-0.09359413805135364,-0.3219556248845467,-0.49725990845836504,-0.13967283101742575,0.0
2019-10-14,1.0,-0.0,-0.08414212863957887,-0.33280556012502055,-0.5082661621977299,-0.1310454022043099,0.0
2019-10-15,1.0,-0.0,-0.08695115427348668,-0.3395950783918357,-0.5060285584955352,-0.12497428089379038,0.0
2019-10-16,1.0,-0.0,-0.08841074587567367,-0.34932324021886696,-0.5032089521537005,-0.11607767309828444,0.0
2019-10-17,1.0,-0.0,-0.08259678183653707,-0.3584687970002266,-0.5010816490512393,-0.11811607639532727,0.0
2019-10-18,1.0,-0.0,-0.09384799471860043,-0.3613426307971613,-0.4949455355669253,-0.11291054629476811,0.0
2019-10-21,1.0,-0.0,-0.06987368986831496,-0.3628470427717942,-0.4903975358154342,-0.1441506625596924,0.0
2019-10-22,1.0,-0.0,-0.04732192500154445,-0.36463417145445937,-0.48652210621692304,-0.16078746319062623,0.0
2019-10-23,1.0,-0.0,-0.04969249692496925,-0.3780442804428044,-0.4708897088970889,-0.1513940139401394,0.0
2019-10-24,1.0,-0.0,-0.045476106997751974,-0.3963330377214511,-0.47169344360344007,-0.14890589230102913,0.0
2019-10-25,1.0,-0.0,-0.04613988408308067,-0.3894354722273787,-0.4756925107769734,-0.15131076872305757,0.0
2019-10-28,1.0,-0.0,-0.05080616858316646,-0.39239042919961187,-0.4716241045438593,-0.14963149528272673,0.0
2019-10-29,1.0,-0.0,-0.05167718777076371,-0.39167388703222344,-0.47144861162685153,-0.14816190122539918,0.0
2019-10-30,1.0,-0.0,-0.054872514233847675,-0.39209093159501607,-0.4687886789339054,-0.14712435019391037,0.0
2019-10-31,1.0,-0.0,-0.05213475719331584,-0.39667031582426204,-0.4651230041517774,-0.15165348150290212,0.0
2019-11-01,1.0,-0.0,-0.044368179856558644,-0.3880109327798443,-0.46338957275847187,-0.1592445695731695,0.0
2019-11-04,1.0,-0.0,-0.0,-0.48043048633785873,-0.5256272555421894,-0.1420776765767314,0.0
2019-11-05,1.0,-0.0,-0.017103095465186853,-0.546627070146536,-0.4981574611983005,-0.10578340414462846,0.0
2019-11-06,1.0,-0.0,-0.012834480955286325,-0.5456724483570121,-0.4975594874923734,-0.12296260786193672,0.0
2019-11-07,1.0,-0.0,-0.02324112393813984,-0.5490089305162273,-0.48719233282509256,-0.11871052058375081,0.0
2019-11-08,1.0,-0.0,-0.014539192606155724,-0.5514430203156334,-0.49027814107594386,-0.12350684453744878,0.0
2019-11-11,1.0,-0.0,-0.004816955684007708,-0.5695393238745841,-0.4839945699772289,-0.13115256612366438,0.0
2019-11-12,1.0,-0.0,-0.0,-0.5668618625180265,-0.4876108901804833,-0.1305554341651007,0.0
2019-11-13,1.0,-0.0,-0.0,-0.597228342293117,-0.4742663259011192,-0.1317308539702124,0.0
2019-11-14,1.0,-0.0,-0.0,-0.6083771019993821,-0.47128922628768155,-0.1271792382045284,0.0
2019-11-15,1.0,-0.0,-0.0,-0.6126165951991512,-0.47069095088634455,-0.12700587949250697,0.0
2019-11-18,1.0,-0.0,-0.0,-0.6177799433026223,-0.47382175761871015,-0.12316176470588236,0.0
2019-11-19,1.0,-0.0,-0.002247898215168817,-0.6224205367980938,-0.48707458526277936,-0.13615519489277525,0.0
2019-11-20,1.0,-0.0,-0.0036769651585130706,-0.6280884265279584,-0.479373122281512,-0.13091341195462086,0.0
2019-11-21,1.0,-0.0,-0.0,-0.6478306112292449,-0.4733972763878207,-0.14088585259919467,0.0
2019-11-22,1.0,-0.0,-0.0,-0.6482075855521902,-0.4786854120518964,-0.1334026490664979,0.0
2019-11-25,1.0,-0.0,-0.0,-0.6522073631570611,-0.4820446677075555,-0.12854977032561718,0.0
2019-11-26,1.0,-0.0,-0.0,-0.6500711558878673,-0.48379226998576885,-0.12507623845128646,0.0
2019-11-27,1.0,-0.0,-0.0,-0.6571784138477202,-0.4840366557302862,-0.12148433080665234,0.0
2019-11-29,1.0,-0.0,-0.0,-0.6762147638781365,-0.4980645748895669,-0.10266860968167948,0.0
2019-12-02,1.0,-0.0,-0.0,-0.6908757450710684,-0.4965612104539202,-0.10508940852819808,0.0
2019-12-03,1.0,-0.0,-0.0,-0.6857913504617354,-0.4938740056688306,-0.10615342415653288,0.0
2019-12-04,1.0,-0.0,-0.0,-0.6956690044630659,-0.4866791146734675,-0.09472629565534202,0.0
2019-12-05,1.0,-0.0,-0.0,-0.7127679104135114,-0.4736334847859011,-0.10833448070127129,0.0
2019-12-06,1.0,-0.0,-0.0048718540752713,-0.717247748787809,-0.48388362964673287,-0.10293234818748558,0.0
2019-12-09,1.0,-0.0,-0.009358871430209886,-0.7148984975341208,-0.47090262644798714,-0.09868104140383072,0.0
2019-12-10,1.0,-0.0,-0.004450679696192734,-0.8052101978617386,-0.5319046006482512,-0.07728218276812926,0.0
2019-12-11,1.0,-0.0,-0.0008966436447352477,-0.809039137283412,-0.5329940627650551,-0.0804313582939537,0.0
2019-12-12,1.0,-0.0,-0.0,-0.8084111016846443,-0.5340928372318507,-0.08144467337292449,0.0
2019-12-13,1.0,-0.0,-0.0,-0.8041480256759387,-0.5387084224858977,-0.088577125072943,0.0
2019-12-16,1.0,-0.0,-0.0,-0.7361232750254455,-0.5066868653395508,-0.12419816791724857,0.0
2019-12-17,1.0,-0.0,-0.0,-0.7644570494640197,-0.5252607796952363,-0.11378166610585012,0.0
2019-12-18,1.0,-0.0,-0.0,-0.7968476357267951,-0.5440418341925458,-0.12577390789571052,0.0
2019-12-19,1.0,-0.0,-0.0,-0.7992838622052106,-0.5430793925175948,-0.12705272255834055,0.0
2019-12-20,1.0,-0.0,-0.0,-0.7955459096850569,-0.5434680740868622,-0.1272350605470195,0.0
2019-12-23,1.0,-0.0,-0.0,-0.8030070725555171,-0.5362777585439438,-0.13363667837182847,0.0
2019-12-24,1.0,-0.0,-0.0,-0.7987758224942617,-0.536663622676901,-0.13266036478515192,0.0
2019-12-26,1.0,-0.0,-0.0,-0.7981968630356923,-0.5393355563789057,-0.13254291712980115,0.0
2019-12-27,1.0,-0.0,-0.0,-0.8016069221260815,-0.5363411619283065,-0.1342398022249691,0.0
2019-12-30,1.0,-0.0,-0.0,-0.8117387313636476,-0.5437225571184044,-0.12525117213663764,0.0
2019-12-31,1.0,-0.0,-0.0,-0.8126425949806566,-0.5423817081638727,-0.12488840392818173,0.0
2020-01-02,1.0,-0.0,-0.0,-0.8119795796986519,-0.5424514274385409,-0.1237609040444092,0.0
2020-01-03,1.0,-0.0,-0.013122509960159363,-0.8382719123505976,-0.5118027888446215,-0.1268426294820717,0.0
2020-01-06,1.0,-0.0,-0.02039593579149712,-0.8473924657363259,-0.5059540155278728,-0.12270015228299673,0.0
2020-01-07,1.0,-0.0,-0.02300999675915539,-0.845436641487797,-0.4999376760651161,-0.12457308104604493,0.0
2020-01-08,1.0,-0.0,-0.02524218515929292,-0.846224907620094,-0.5042195146309797,-0.12106761210426445,0.0
2020-01-09,1.0,-0.0,-0.029588904160939646,-0.8448081969261527,-0.5022366612520305,-0.12240409846307636,0.0
2020-01-10,1.0,-0.0,-0.026761551568607798,-0.8535882529818584,-0.5079182118873409,-0.11749523904981458,0.0
2020-01-13,1.0,-0.0,-0.028204356117635252,-0.8634949312456087,-0.5037890193716752,-0.11377095252434005,0.0
2020-01-14,1.0,-0.0,-0.023309258043335522,-0.8870902570836912,-0.5173493610788423,-0.09760593969392393,0.0
2020-01-15,1.0,-0.0,-0.024302134646962233,-0.8871794871794872,-0.5161551092585576,-0.09857269167613995,0.0
2020-01-16,1.0,-0.0,-0.022698007927891534,-0.8836821773928851,-0.5181659807609766,-0.10023480697856439,0.0
2020-01-17,1.0,-0.0,-0.02566823303521803,-0.8824465666211914,-0.520564903238846,-0.09769592238896468,0.0
2020-01-21,1.0,-0.0,-0.03497791798107256,-0.8789400630914826,-0.5109652996845426,-0.09877602523659307,0.0
2020-01-22,1.0,-0.0,-0.04699619771863118,-0.866083650190114,-0.5273764258555134,-0.09437262357414448,0.0
2020-01-23,1.0,-0.0,-0.04102525021592237,-0.8578976781994615,-0.5354874765025657,-0.10587816897830615,0.0
2020-01-24,1.0,-0.0,-0.0413684183712459,-0.8652979086532339,-0.5393687749955423,-0.10128130015029167,0.0
2020-01-27,1.0,-0.0,-0.032236741750139825,-0.8705445670412365,-0.5334570600498296,-0.1060914221792851,0.0
2020-01-28,1.0,-0.0,-0.04363479627798484,-0.8777921452295835,-0.5234907837022388,-0.09051494637559901,0.0
2020-01-29,1.0,-0.0,-0.04709155285786546,-0.8795397066262014,-0.5156550328780981,-0.08682346990389479,0.0
2020-01-30,1.0,-0.0,-0.05250807428340734,-0.8750756964069439,-0.5177886556318126,-0.07784113847396043,0.0
2020-01-31,1.0,-0.0,-0.061427920862217274,-0.8757779689318423,-0.5150786823862774,-0.07769569397358701,0.0
2020-02-03,1.0,-0.0,-0.05672658088419366,-0.8659440244329846,-0.5038552045261103,-0.07685375256596406,0.0
2020-02-04,1.0,-0.0,-0.05586158545745906,-0.8691471781260954,-0.5026290750663528,-0.07624317692423256,0.0
2020-02-05,1.0,-0.0,-0.0583387281509885,-0.8637020068721678,-0.5006722772770281,-0.06717792938598675,0.0
2020-02-06,1.0,-0.0,-0.06709408081109289,-0.861388598976194,-0.4953531136623428,-0.061155012176333186,0.0
2020-02-07,1.0,-0.0,-0.07127064960874425,-0.857086076263818,-0.49419947832567385,-0.061607253757297226,0.0
2020-02-10,1.0,-0.0,-0.06990836168574764,-0.8573521742369683,-0.49452405195321236,-0.06163856259468051,0.0
2020-02-11,1.0,-0.0,-0.06657885580794275,-0.8525771658631144,-0.4921715791043292,-0.07386052984740792,0.0
2020-02-12,1.0,-0.0,-0.06630218687872763,-0.8506461232604374,-0.49242047713717696,-0.075720675944334,0.0
2020-02-13,1.0,-0.0,-0.07761364766736298,-0.8563364169899532,-0.49353426837759873,-0.05936038993335323,0.0
2020-02-14,1.0,-0.0,-0.0899626400996264,-0.8763636363636363,-0.4657036114570361,-0.05863013698630136,0.0
2020-02-18,1.0,-0.0,-0.09036114570361145,-0.8752677459526774,-0.46490660024906594,-0.06012453300124533,0.0
2020-02-19,1.0,-0.0,-0.08905547226386806,-0.8772363818090955,-0.46591704147926033,-0.06651674162918542,0.0
2020-02-20,1.0,-0.0,-0.08920481565839862,-0.8787074812905163,-0.46759942932946214,-0.067454258754036,0.0
2020-02-21,1.0,-0.0,-0.09087272818179547,-0.8790030249243769,-0.4642133946651334,-0.06584835379115522,0.0
2020-02-24,1.0,-0.0,-0.09181072555205048,-0.889589905362776,-0.47608832807570983,-0.06617034700315458,0.0
2020-02-25,1.0,-0.0,-0.11026067940657538,-0.8653611987773664,-0.44362714644268286,-0.06577868343232027,0.0
2020-02-26,1.0,-0.0,-0.1012158573134183,-0.8475427012012378,-0.43824468214712115,-0.04958456177968373,0.0
2020-02-27,1.0,-0.0,-0.10879306545214133,-0.8560444672984159,-0.4263816449962047,-0.05744508925292001,0.0
2020-02-28,1.0,-0.0,-0.14664564557498175,-0.7944796103254347,-0.3625197072734546,-0.04946231498694025,0.0
2020-03-02,1.0,-0.0,-0.146937047144067,-0.7975675167027383,-0.3596028982779712,-0.04839089112637621,0.0
2020-03-03,1.0,-0.0,-0.17754117754117754,-0.7333469833469834,-0.3286013286013286,-0.03549003549003549,0.0
2020-03-04,1.0,-0.0,-0.19730113316362163,-0.7433598414021492,-0.2906125391425804,-0.021536867241884253,0.0
2020-03-05,1.0,-0.0,-0.20332274942981082,-0.7291936854344618,-0.28516166539957966,-0.018335494834756945,0.0
2020-03-06,1.0,-0.0,-0.2147311948139041,-0.7181178048507879,-0.2851458589471331,-0.017391304347826084,0.0
2020-03-09,1.0,-0.0,-0.20171383470515278,-0.7450219866952306,-0.28999887247716766,-0.018310970797158644,0.0
2020-03-10,1.0,-0.030891457765077714,-0.1492834567259817,-0.649175217560722,-0.3025501147335152,-0.03286141057280166,0.0
2020-03-11,1.0,-0.006752582809670892,-0.1849824262434764,-0.6492917243582917,-0.2767493875812121,-0.012354883374161253,0.0
2020-03-12,1.0,-0.011429053412900915,-0.16953798789616853,-0.6380448305674462,-0.2761950952069671,-0.013495561225565654,0.0
2020-03-13,1.0,-0.09154618473895582,-0.12399598393574297,-0.5408433734939759,-0.2516265060240964,-0.0,0.0
2020-03-16,1.0,-0.04552120720929335,-0.17104704565628495,-0.5131218401451121,-0.19999228127050286,-0.0,0.0
2020-03-17,1.0,-0.1372923539966429,-0.16918446489552583,-0.3872200034728251,-0.22910999208967603,-0.0065404873531284356,0.0
2020-03-18,1.0,-0.14934251099130644,-0.16090078978256112,-0.43272922593351504,-0.24121192830286273,-0.005172379493504685,0.0
2020-03-19,1.0,-0.16455572111991215,-0.0954238883224845,-0.42647635479570223,-0.2427652733118971,-0.03140930123127597,0.0
2020-03-20,1.0,-0.16612633854013165,-0.1254347185381668,-0.41632773356911285,-0.2411435307987032,-0.015777581294822676,0.0
2020-03-23,1.0,-0.16778017882278304,-0.11266628338058325,-0.4350032711484705,-0.24632739239904045,-0.020756923930929205,0.0
2020-03-24,1.0,-0.15776550030693676,-0.10092081031307551,-0.4920196439533456,-0.2771843666871291,-0.018334356455903415,0.0
2020-03-25,1.0,-0.16339543688353095,-0.09983062668127926,-0.4456311646906446,-0.27434492378200653,-0.00942512702998904,0.0
2020-03-26,1.0,-0.16069006781013165,-0.09992022337455127,-0.449780614280016,-0.2748504188272836,-0.00915436777024332,0.0
2020-03-27,1.0,-0.16009748886269654,-0.10024571987933757,-0.4534630521205826,-0.2755458776994227,-0.008390434904209201,0.0
2020-03-30,1.0,-0.15697303334928994,-0.09815302377533108,-0.458871868517632,-0.2758895803414712,-0.004687250678155417,0.0
2020-03-31,1.0,-0.17107017331232577,-0.09132226396800387,-0.4655799297054902,-0.2914798206278027,-0.0004847897224578839,0.0
2020-04-01,1.0,-0.17407878017789072,-0.09455234868195478,-0.4535810088541982,-0.29323732881547365,-0.0014521691777092034,0.0
2020-04-02,1.0,-0.1759463690739031,-0.08201196258680904,-0.4536951547509132,-0.295471879892417,-0.0,0.0
2020-04-03,1.0,-0.17336059002725668,-0.08720137886804553,-0.45608866442199775,-0.287037037037037,-0.000481000481000481,0.0
2020-04-06,1.0,-0.17336995749458659,-0.08833908092068331,-0.4559908573261689,-0.28657069532440455,-0.0007017403159836395,0.0
2020-04-07,1.0,-0.17288155970104394,-0.08814394774280161,-0.4557877652433526,-0.28637265313483073,-0.0005410062716652975,0.0
2020-04-08,1.0,-0.1721733555070228,-0.08725881103608568,-0.45464745837424114,-0.28682201606924607,-0.0027449958925243943,0.0
2020-04-09,1.0,-0.17188938247888902,-0.08350342177932525,-0.453615880257734,-0.28666906791531593,-0.005382799055508865,0.0
2020-04-13,1.0,-0.16528942195836174,-0.10343375185526896,-0.4486942917886798,-0.2867343254843756,-0.0015243290946287456,0.0
2020-04-14,1.0,-0.15900603564868085,-0.12919114233230383,-0.42984315387876215,-0.29516138799733543,-0.005409879085165223,0.0
2020-04-15,1.0,-0.14952011106863317,-0.13497253465864506,-0.42443509929777257,-0.2951166019437011,-0.008068572808306002,0.0
2020-04-16,1.0,-0.1444596608531035,-0.13944495911709026,-0.4232690216296774,-0.29633060780601767,-0.010432190760059612,0.0
2020-04-17,1.0,-0.1449348347199001,-0.14010031625808272,-0.4229397901013235,-0.2961545434401628,-0.010253207904437685,0.0
2020-04-20,1.0,-0.15136885724056082,-0.13024762134652906,-0.42564319192163014,-0.29565707159093196,-0.008629533522418683,0.0
2020-04-21,1.0,-0.15902752516066448,-0.14069762742007194,-0.43419829432925106,-0.2870336688088598,-0.0,0.0
2020-04-22,1.0,-0.15084878873920138,-0.14716365613483962,-0.4284016995912121,-0.287339656457037,-0.0,0.0
2020-04-23,1.0,-0.14447370007838725,-0.15365907583462304,-0.42542158261813356,-0.2863746909734086,-0.0,0.0
2020-04-24,1.0,-0.1461722536145911,-0.14991252589032558,-0.4271551810814615,-0.28767922137987895,-0.0,0.0
2020-04-27,1.0,-0.15396083487791118,-0.15160367475219597,-0.4184865823192844,-0.2906156821661697,-0.0,0.0
2020-04-28,1.0,-0.14104508196721313,-0.20194672131147542,-0.41610655737704916,-0.29008196721311474,-0.0,0.0
2020-04-29,1.0,-0.14340473506200674,-0.19938505688223837,-0.41678794711489187,-0.2902121553756278,-0.0,0.0
2020-04-30,1.0,-0.14324589761427345,-0.1741825919711912,-0.4263412039121005,-0.3023284363874453,-0.0,0.0
2020-05-01,1.0,-0.13659735736966097,-0.18512752227798834,-0.42650824541636795,-0.30031752535081435,-0.0,0.0
2020-05-04,1.0,-0.1344436497394503,-0.1777051190354552,-0.42999897823643607,-0.30137938081128024,-0.0,0.0
2020-05-05,1.0,-0.134851209941138,-0.17850719424460432,-0.4285071942446044,-0.3019538914323087,-0.0,0.0
2020-05-06,1.0,-0.1331779998773683,-0.1802276861446645,-0.42448954564964136,-0.305945592413187,-0.0,0.0
2020-05-07,1.0,-0.13507322261310645,-0.18297471979055877,-0.4207845864354086,-0.3064714063650495,-0.0,0.0
2020-05-08,1.0,-0.13395084447716027,-0.18318815687236742,-0.4217069480227375,-0.30589293747188484,-0.0,0.0
2020-05-11,1.0,-0.13277974352156752,-0.18366637350950035,-0.4219622440840202,-0.3068741946699937,-0.0,0.0
2020-05-12,1.0,-0.1318148330058939,-0.18774557956777996,-0.4148657498362803,-0.3120497707924034,-0.0,0.0
2020-05-13,1.0,-0.12915891290566653,-0.1872558843377436,-0.4159833132246784,-0.31252939612686853,-0.0,0.0
2020-05-14,1.0,-0.12884627179979966,-0.18556153012614748,-0.416123162478788,-0.314019341252479,-0.0,0.0
2020-05-15,1.0,-0.13435673112301214,-0.18351661829033972,-0.4165814970769797,-0.3096357466988267,-0.0,0.0
2020-05-18,1.0,-0.13819707357003994,-0.1798014939117978,-0.41213547528906175,-0.3163204747774481,-0.0,0.0
2020-05-19,1.0,-0.13759384653151402,-0.17922386105599084,-0.4126178835177874,-0.31624491131886345,-0.0,0.0
2020-05-20,1.0,-0.13587477806575377,-0.18189424705618254,-0.4112773208710026,-0.3117283320748556,-0.0,0.0
2020-05-21,1.0,-0.13412172494647773,-0.1785095320623917,-0.41433377510449587,-0.3119787949841982,-0.0,0.0
2020-05-22,1.0,-0.1324719261418061,-0.1813846373326268,-0.4135569731183891,-0.31061609635804105,-0.0,0.0
2020-05-26,1.0,-0.13254534338699817,-0.18112899938862848,-0.41306297126553904,-0.3111473405339311,-0.0,0.0
2020-05-27,1.0,-0.12115695379139647,-0.19508253727984942,-0.39221060813713254,-0.3193077914373964,-0.017775686787898624,0.0
2020-05-28,1.0,-0.1161081656465579,-0.19972979058770549,-0.38795521074287115,-0.31714806247569144,-0.02609977277844875,0.0
2020-05-29,1.0,-0.11459740472389372,-0.20062221130623437,-0.3876335502885914,-0.3165090670923902,-0.027405951942363584,0.0
2020-06-01,1.0,-0.11435119815008084,-0.2027748787525324,-0.3840219370945628,-0.31696236724169685,-0.02823991650807293,0.0
2020-06-02,1.0,-0.1144739803957681,-0.20166983854134693,-0.3819755663331082,-0.3171260769026132,-0.031145762989338407,0.0
2020-06-03,1.0,-0.1141921620791978,-0.2018827381561445,-0.3827074593267165,-0.31675023022613324,-0.030921927760155534,0.0
2020-06-04,1.0,-0.11429975027633357,-0.20172350268145905,-0.38271175338764485,-0.3175584394317763,-0.030642322020714787,0.0
2020-06-05,1.0,-0.11587288586756216,-0.20254719685490805,-0.38363569351734306,-0.3173962897743561,-0.02815430607313977,0.0
2020-06-08,1.0,-0.11501800032727869,-0.19867861233840614,-0.3897275405007364,-0.31619211258386515,-0.02587547046309933,0.0
2020-06-09,1.0,-0.1255189055438539,-0.1970307355677798,-0.39033966585550395,-0.317150978507597,-0.014907670599783235,0.0
2020-06-10,1.0,-0.12446869380415236,-0.1958680725846003,-0.38642308321072416,-0.3162702305051496,-0.02045528854013405,0.0
2020-06-11,1.0,-0.12300404296157144,-0.19302078653979662,-0.3831216563891044,-0.31855678523298075,-0.024216931433005268,0.0
2020-06-12,1.0,-0.13607892905391575,-0.1909771973635731,-0.37524051254759083,-0.31456994309575476,-0.03004871658410775,0.0
2020-06-15,1.0,-0.13740223578068056,-0.1900004094836411,-0.37572171491748907,-0.31507718766635273,-0.029237131976577534,0.0
2020-06-16,1.0,-0.1391379098612305,-0.18342953047607352,-0.3744115600311106,-0.3179417904949036,-0.03182692701297638,0.0
2020-06-17,1.0,-0.13842599218925716,-0.18308217637556995,-0.3731163228167747,-0.31715296378841473,-0.03294006992864007,0.0
2020-06-18,1.0,-0.1379338538898655,-0.18378234741016314,-0.3723478189771473,-0.3168104329340583,-0.033216139977924046,0.0
2020-06-19,1.0,-0.13842096655491049,-0.18400932210319734,-0.3721072859596042,-0.3166857469948483,-0.03311799820099763,0.0
2020-06-22,1.0,-0.13775760549558388,-0.18404481517827936,-0.3750613346418057,-0.31505561007523714,-0.03256869479882237,0.0
2020-06-23,1.0,-0.13660520829074854,-0.18200400637749886,-0.3748415845631822,-0.3154409059318916,-0.03517844732431217,0.0
2020-06-24,1.0,-0.1359139960758666,-0.1824926422498365,-0.37530657292347935,-0.31489126880313933,-0.03523544800523218,0.0
2020-06-25,1.0,-0.133117015632015,-0.18119668584955714,-0.37757642545202236,-0.3135586302599894,-0.03530468144157381,0.0
2020-06-26,1.0,-0.13325168401714638,-0.18128189426413555,-0.37805674627475,-0.3137170851194121,-0.03492549499897939,0.0
2020-06-29,1.0,-0.12952660430804347,-0.17792586252572803,-0.3815491838356667,-0.31110024250575696,-0.03778198936235251,0.0
2020-06-30,1.0,-0.1292261916892539,-0.17762742260897918,-0.3810144898000774,-0.3115612708634779,-0.03851719007927612,0.0
2020-07-01,1.0,-0.1304072933450266,-0.1775203442719912,-0.3827986375966225,-0.3105790214354184,-0.03824111276539332,0.0
2020-07-02,1.0,-0.12978220083204176,-0.17793050004078634,-0.3822497756750142,-0.31001713027163713,-0.03933844522391712,0.0
2020-07-06,1.0,-0.12936684566224962,-0.17687894317740982,-0.3846907732200829,-0.31090103517977824,-0.039937113338914185,0.0
2020-07-07,1.0,-0.1264327962471956,-0.1803997552518866,-0.3834795023455027,-0.31054456455231494,-0.03871099326942688,0.0
2020-07-08,1.0,-0.12541018690255387,-0.18327456535474798,-0.38373112121150355,-0.3074822167417402,-0.038318080834844996,0.0
2020-07-09,1.0,-0.12059717321694438,-0.18251718300666925,-0.3824927086944994,-0.3102730925332952,-0.0436254614427607,0.0
2020-07-10,1.0,-0.12384488280532834,-0.17906611452234758,-0.3863446278125701,-0.31041798412925076,-0.04024805695518248,0.0
2020-07-13,1.0,-0.12395193700401885,-0.1800526326526449,-0.3860339868214366,-0.3100634447867153,-0.03992329504885861,0.0
2020-07-14,1.0,-0.12074940879067111,-0.1818886080078284,-0.386018918698524,-0.31064992253119134,-0.039325613634510315,0.0
2020-07-15,1.0,-0.12019495483002632,-0.18410587923404778,-0.3849950037726615,-0.31090808980973555,-0.03907253706384975,0.0
2020-07-16,1.0,-0.12023293221753914,-0.1834952049355568,-0.3871072832040397,-0.30700629161321846,-0.03827907071447478,0.0
2020-07-17,1.0,-0.121835475264262,-0.18419927086091367,-0.3876657365730463,-0.30505712947310537,-0.03794374630847879,0.0
2020-07-20,1.0,-0.13005153795811517,-0.18461632853403143,-0.3888048102094241,-0.30638498036649214,-0.035278959424083774,0.0
2020-07-21,1.0,-0.12119232339730503,-0.18783176806859941,-0.3827276439363005,-0.307411188240098,-0.04248672927725602,0.0
2020-07-22,1.0,-0.12199204000408205,-0.18585569956117973,-0.38403918767221146,-0.30676599653025816,-0.04237167057863048,0.0
2020-07-23,1.0,-0.12384318372183294,-0.18731741200024515,-0.38437966046293087,-0.30734029295797666,-0.040041676030153836,0.0
2020-07-24,1.0,-0.11661736203203102,-0.19004386412322757,-0.3829439967356932,-0.30684484341528107,-0.043762113638682036,0.0
2020-07-27,1.0,-0.12144781969622734,-0.19132778049975502,-0.38057324840764334,-0.3122448146333497,-0.03588926996570308,0.0
2020-07-28,1.0,-0.12194474506360649,-0.19030894574561494,-0.3796173401670308,-0.3130092091560656,-0.037040818410144366,0.0
2020-07-29,1.0,-0.12690615085456966,-0.18866032135912394,-0.3778528298024767,-0.3128850680585406,-0.04054856207143589,0.0
2020-07-30,1.0,-0.12642455242966752,-0.18569820971867004,-0.378537084398977,-0.3135959079283887,-0.04178005115089514,0.0
2020-07-31,1.0,-0.1254322604407522,-0.18540647827955228,-0.37848621882097766,-0.314112663952037,-0.042765648339506045,0.0
2020-08-03,1.0,-0.11371874424033913,-0.19270545350289775,-0.38334254879072716,-0.30988511396448976,-0.048207081567037326,0.0
2020-08-04,1.0,-0.11729344904700355,-0.1976364867360128,-0.3857532672698549,-0.3073798239675017,-0.04361830902115262,0.0
2020-08-05,1.0,-0.11805142306034926,-0.1973200911086943,-0.385672952619375,-0.30736872345228083,-0.04356390946586502,0.0
2020-08-06,1.0,-0.11918097700088222,-0.1945589955068628,-0.38665599803040557,-0.3066617426807,-0.044582589606286284,0.0
2020-08-07,1.0,-0.12186092429197261,-0.19666399292486786,-0.3862734209497954,-0.3036136648773164,-0.04829189033545176,0.0
2020-08-10,1.0,-0.11629533625460305,-0.20092986895430887,-0.3844761258203213,-0.3042646423501821,-0.051286798740973895,0.0
2020-08-11,1.0,-0.12221100558313933,-0.20282659304888853,-0.38795607655699543,-0.30435320051917014,-0.04283153752652506,0.0
2020-08-12,1.0,-0.11936426895046733,-0.20303042780088112,-0.3844443529460205,-0.3056779346975748,-0.04617696710174167,0.0
2020-08-13,1.0,-0.11855754981063725,-0.2051292606619463,-0.38168944508480157,-0.3049563642351391,-0.04795817553103903,0.0
2020-08-14,1.0,-0.11982297241663235,-0.20613421160971596,-0.38219431864965003,-0.30485796624125155,-0.04547138740222313,0.0
2020-08-17,1.0,-0.11838749485808309,-0.20306458247634718,-0.38218839983545866,-0.30464829288358697,-0.04849856026326614,0.0
2020-08-18,1.0,-0.11862630248474013,-0.2031156873625583,-0.3770063916805393,-0.3065540415561995,-0.04985921861191606,0.0
2020-08-19,1.0,-0.11925756921748783,-0.20478510205340075,-0.373743602392551,-0.30414585517255555,-0.053524079669482645,0.0
2020-08-20,1.0,-0.11870607094414073,-0.20479674462575528,-0.37377204159644867,-0.3040815487689589,-0.053824653705454396,0.0
2020-08-21,1.0,-0.11470159518774764,-0.20636843293847132,-0.3673859040423741,-0.30363998439713397,-0.06089223757416493,0.0
2020-08-24,1.0,-0.11500318255548939,-0.20565468246309263,-0.36903270845738456,-0.30396484816130426,-0.05958565180789684,0.0
2020-08-25,1.0,-0.11431915723761217,-0.20921206645173213,-0.3655255970593671,-0.30381748362322114,-0.06064028584923096,0.0
2020-08-26,1.0,-0.11235470489177313,-0.20922495584671624,-0.36684191070768474,-0.3042880026286606,-0.06093153160553662,0.0
2020-08-27,1.0,-0.11019871900147807,-0.21033831499425193,-0.36670635572343574,-0.3033749384135326,-0.06226391854163245,0.0
2020-08-28,1.0,-0.10828169245290761,-0.2133212951943202,-0.36522756186645877,-0.30387409200968524,-0.06125087208109328,0.0
2020-08-31,1.0,-0.110175582708697,-0.2133689290481569,-0.3667522332888387,-0.30510319334633945,-0.058198993736523257,0.0
2020-09-01,1.0,-0.10956710934132473,-0.2144748455428067,-0.36679734805722614,-0.303269771547035,-0.0584782117859562,0.0
2020-09-02,1.0,-0.10939167556029883,-0.21398078975453577,-0.36678023150808636,-0.30319760282407027,-0.059005828749692145,0.0
2020-09-03,1.0,-0.11087135224003289,-0.21060419235511715,-0.36446773530620635,-0.3058569667077682,-0.06327579120427457,0.0
2020-09-04,1.0,-0.0986901350798199,-0.21144085141219812,-0.35968072042570615,-0.3079205894392141,-0.06893164142447811,0.0
2020-09-08,1.0,-0.09918133442488744,-0.21240278346295538,-0.357163323782235,-0.305730659025788,-0.07216537044617274,0.0
2020-09-09,1.0,-0.09632399517767017,-0.2135515641921576,-0.3525000510840025,-0.3053392999448293,-0.07564519095200146,0.0
2020-09-10,1.0,-0.09459155964801241,-0.21388758447497908,-0.35025214888013234,-0.30523285489699664,-0.07768635537679414,0.0
2020-09-11,1.0,-0.09363586280071007,-0.21561345875247404,-0.35071109388071575,-0.30351568079332364,-0.07696545532453222,0.0
2020-09-14,1.0,-0.09210768006204462,-0.21156397330448803,-0.35030716166295894,-0.3046921240075923,-0.08227034308222952,0.0
2020-09-15,1.0,-0.09344135172638968,-0.2085135907272876,-0.34666557832013717,-0.307301444780018,-0.08472777732430006,0.0
2020-09-16,1.0,-0.09359314425627424,-0.20905937563762497,-0.34215466231381353,-0.30763109569475616,-0.08796164048153439,0.0
2020-09-17,1.0,-0.09477551020408163,-0.2079591836734694,-0.34269387755102043,-0.3076938775510204,-0.08771428571428572,0.0
2020-09-18,1.0,-0.09606986899563318,-0.2085867036689385,-0.3418356935885402,-0.30720728074113374,-0.0868873199200098,0.0
2020-09-21,1.0,-0.09610675808031342,-0.2086598106431603,-0.34169931439764933,-0.3070927195559908,-0.08692458374142997,0.0
2020-09-22,1.0,-0.09677024212976196,-0.20924012902698952,-0.34106406435016945,-0.3067249193581316,-0.08774651912947613,0.0
2020-09-23,1.0,-0.09624096975633648,-0.20988939226970327,-0.340782008897596,-0.306232398677605,-0.08758826170360393,0.0
2020-09-24,1.0,-0.0935754759284171,-0.20747217806041338,-0.33975378093025155,-0.3069177775060128,-0.09053850230320819,0.0
2020-09-25,1.0,-0.09341297832867831,-0.2083953436219445,-0.33881062567531756,-0.3060284194002161,-0.09204705306721576,0.0
2020-09-28,1.0,-0.0913664229414041,-0.20635858164117396,-0.33509847451068253,-0.3065235544512108,-0.09735432493533475,0.0
2020-09-29,1.0,-0.09241730279898219,-0.2038676844783715,-0.33378117048346057,-0.30695165394402035,-0.0985852417302799,0.0
2020-09-30,1.0,-0.0925579123071286,-0.20345641818996052,-0.3350771485567724,-0.3058869030655864,-0.09862394658632903,0.0
2020-10-01,1.0,-0.09257977857375448,-0.20217355910126994,-0.3350089547378704,-0.30582464995115594,-0.0996011071312276,0.0
2020-10-02,1.0,-0.09444749638853284,-0.20144865612728644,-0.3341471850902358,-0.30621172353455817,-0.0983743311155873,0.0
2020-10-05,1.0,-0.09246227067485661,-0.20282308912663224,-0.3326485782858073,-0.3064312736443884,-0.0995810112679494,0.0
2020-10-06,1.0,-0.09174237343251428,-0.20130886328069425,-0.3307318659431336,-0.30679023636770114,-0.10182305956953844,0.0
2020-10-07,1.0,-0.0894137237779989,-0.2039680766809496,-0.3305850577747091,-0.30400259935422297,-0.10277602908027537,0.0
2020-10-08,1.0,-0.0894313892609278,-0.20264621129104265,-0.33118227200779254,-0.30405048906205606,-0.10197248264945818,0.0
2020-10-09,1.0,-0.08853616952179913,-0.20248437119428433,-0.33086384671592106,-0.3044775513517902,-0.10339368352683283,0.0
2020-10-12,1.0,-0.08748680899423655,-0.20202532673106585,-0.33038395973699164,-0.3035757772546473,-0.1058933354980112,0.0
2020-10-13,1.0,-0.08751927290432523,-0.20200032459628336,-0.32981011117422704,-0.3029294814574373,-0.10644729367848738,0.0
2020-10-14,1.0,-0.08713819192308472,-0.20236912030181942,-0.3295267844465629,-0.30263077828035945,-0.10669154783878623,0.0
2020-10-15,1.0,-0.08762322015334063,-0.2024867145349073,-0.32915500385379903,-0.3027869051965437,-0.10626343758873878,0.0
2020-10-16,1.0,-0.08067655143355872,-0.20940591079633233,-0.31189181597479987,-0.28709295559880416,-0.1173130555165426,0.0
2020-10-19,1.0,-0.08017875393278691,-0.2073906334542394,-0.30530450291577327,-0.28662752249453916,-0.12446644355824532,0.0
2020-10-20,1.0,-0.07940705128205129,-0.20739182692307692,-0.30564903846153846,-0.2861578525641026,-0.12461939102564104,0.0
2020-10-21,1.0,-0.08064613102992163,-0.20810870393009598,-0.3025031565023949,-0.2881736376936489,-0.12469687556366113,0.0
2020-10-22,1.0,-0.08129885748647023,-0.20639406694728404,-0.3011024253357386,-0.28987773100821806,-0.12575666466225696,0.0
2020-10-23,1.0,-0.08127555519923035,-0.2060250140303055,-0.3020724765493466,-0.2892848552874209,-0.1256714503327187,0.0
2020-10-26,1.0,-0.0810686227352894,-0.20560766394099728,-0.3022687189353856,-0.2888808722142055,-0.12636283469616802,0.0
2020-10-27,1.0,-0.07874346807616071,-0.20543776402987166,-0.3048030912767533,-0.2886059222776143,-0.12451198270166376,0.0
2020-10-28,1.0,-0.07736188951160929,-0.20554443554843876,-0.30164131305044034,-0.2879903923138511,-0.12906325060048038,0.0
