Date,alpha
2018-09-24,0.0
2018-09-25,-0.013338311782991564
2018-09-26,0.006457358851979822
2018-09-27,-0.006389818440334659
2018-09-28,-0.007499503559782156
2018-10-01,0.0027200064267604417
2018-10-02,0.009600293657855278
2018-10-03,-0.009291628252906942
2018-10-04,0.009810313072424267
2018-10-05,0.013939142799533594
2018-10-08,0.006399490907711733
2018-10-09,-0.012971361563132286
2018-10-10,0.021818359901014255
2018-10-11,0.02763283380879676
2018-10-12,-0.016665074540919266
2018-10-15,0.010459950858100813
2018-10-16,-0.005565935519917912
2018-10-17,-0.002241380392232027
2018-10-18,0.019794572978164594
2018-10-19,0.0069710256600097305
2018-10-22,0.0014516990976771538
2018-10-23,0.007034358585487434
2018-10-24,0.02172140375876052
2018-10-25,-0.02147288967988743
2018-10-26,0.01404543922880545
2018-10-29,0.005264348453443162
2018-10-30,-0.010387045738231885
2018-10-31,-0.007578676026912428
2018-11-01,-0.011749176338076811
2018-11-02,0.014045201107659404
2018-11-05,-0.024071988005980507
2018-11-06,0.01308215805930612
2018-11-07,-0.02078155582156129
2018-11-08,0.004154965521801674
2018-11-09,0.012566523772689063
2018-11-12,0.006061160571901536
2018-11-13,0.009596308065026022
2018-11-14,0.009982291645148139
2018-11-15,0.009909109063177686
2018-11-16,0.011248269906130485
2018-11-19,0.01641197597738996
2018-11-20,0.022420666187835885
2018-11-21,-0.018669858296478624
2018-11-23,0.01128574719122702
2018-11-26,-0.024899873223793143
2018-11-27,-0.012676684901904304
2018-11-28,-0.017980502132781642
2018-11-29,0.003098674294844482
2018-11-30,-0.006774538450481993
2018-12-03,-0.013640807381312112
2018-12-04,0.039346009407473306
2018-12-06,-0.009319817224621893
2018-12-07,0.015540021522020886
2018-12-10,-0.004477088558312815
2018-12-11,-0.003272047898755767
2018-12-12,0.0025538692855586412
2018-12-13,0.011964799192369358
2018-12-14,0.021702696368366255
2018-12-17,0.011295189048961287
2018-12-18,-0.00603373354534113
2018-12-19,0.0004814582207540224
2018-12-20,0.01881807987206554
2018-12-21,0.013332310874200712
2018-12-24,-0.008382201901845427
2018-12-26,-0.04203819279756234
2018-12-27,-0.0028898069075966354
2018-12-28,0.003916449640088536
2018-12-31,0.0044643543180301
2019-01-02,-0.04864077568469698
2019-01-03,0.015030686014667647
2019-01-04,-0.025423719372011037
2019-01-07,-0.0062851722750831155
2019-01-08,0.0035487964202306848
2019-01-09,-0.00870112693201013
2019-01-10,0.006644104112063437
2019-01-11,-0.0013686474620243536
2019-01-14,0.0012678308874201254
2019-01-15,-0.0016042323089372707
2019-01-16,-0.0060474183914130935
2019-01-17,0.0022882476033525587
2019-01-18,0.0010791469928052742
2019-01-22,0.007017382535801778
2019-01-23,0.009874805869483855
2019-01-24,-0.00811944659613201
2019-01-25,-0.010611425124715822
2019-01-28,0.01339995012346158
2019-01-29,0.005480115991999636
2019-01-30,-0.016393267944138534
2019-01-31,0.0021372302984556447
2019-02-01,0.0025080573471032786
2019-02-04,-0.004790516654604612
2019-02-05,0.009211446152438582
2019-02-06,0.004879534098142934
2019-02-07,0.016472772141090785
2019-02-08,-0.004872737455325602
2019-02-11,0.00024856565441719097
2019-02-12,-0.009520679269519224
2019-02-13,-0.0003168737514997969
2019-02-14,-0.00830425446592062
2019-02-15,-0.013193274841637074
2019-02-19,-0.007056416109799871
2019-02-20,0.003931119432735426
2019-02-21,0.013763556286614156
2019-02-22,-0.01797062824517612
2019-02-25,-0.0067905116924813665
2019-02-26,8.128917889388269e-05
2019-02-27,0.002840976498861892
2019-02-28,0.007480514083466902
2019-03-01,-0.016168090860815488
2019-03-04,0.014854073458688881
2019-03-05,0.002237530204087583
2019-03-06,0.0029200472002905487
2019-03-07,0.004387366789278481
2019-03-08,0.007621125511464372
2019-03-11,-0.0029211901307212374
2019-03-12,-0.001210374337739911
2019-03-13,-0.007319417135714304
2019-03-14,0.008369415070569264
2019-03-15,-0.004773769514291416
2019-03-18,0.000777009931954232
2019-03-19,-0.0006294225267178051
2019-03-20,0.012278600696937956
2019-03-21,-0.0009263360527492336
2019-03-22,0.01302458230174312
2019-03-25,0.00819535276685448
2019-03-26,-0.001643404801371583
2019-03-27,0.007042872608272513
2019-03-28,0.0013934006547110377
2019-03-29,-0.006586778569328577
2019-04-01,-0.004595629535863266
2019-04-02,-0.0026796544546525136
2019-04-03,-0.0021631454333178035
2019-04-04,0.000891309632217392
2019-04-05,-0.0011650832729347828
2019-04-08,0.0017720928702180602
2019-04-09,0.00207371038821974
2019-04-10,0.001034799943293445
2019-04-11,0.005830522096195452
2019-04-12,-0.0007574581088983644
2019-04-15,-0.0017895839511530448
2019-04-16,-0.006146190374214197
2019-04-17,-0.014543386315083093
2019-04-18,0.003176295639387477
2019-04-22,0.007749595359079697
2019-04-23,-0.0012405283361765062
2019-04-24,0.001862132120338466
2019-04-25,0.0009225977087022547
2019-04-26,0.012714344207519475
2019-04-29,-0.004075141198642463
2019-04-30,0.002178936170531705
2019-05-01,0.023155435160404657
2019-05-02,0.002949319323153442
2019-05-03,-0.006624572207240337
2019-05-06,0.014598281174451127
2019-05-07,0.01197792101267332
2019-05-08,0.004043162591444667
2019-05-09,-0.0038278671167932174
2019-05-10,0.000319598989383619
2019-05-13,0.026679320913401035
2019-05-14,-0.011598066267522258
2019-05-15,-0.003600513812419816
2019-05-16,-0.0009500985095275646
2019-05-17,0.006738983123675411
2019-05-20,0.0016439415819280226
2019-05-21,-0.008695776113130613
2019-05-22,0.004926844607113858
2019-05-23,0.01461080348877103
2019-05-24,-0.0041269851758353624
2019-05-28,0.012494821461976651
2019-05-29,0.006157773531525166
2019-05-30,0.006513570518874231
2019-05-31,0.016847336230491665
2019-06-03,0.004524497193621454
2019-06-04,-0.01452038597957813
2019-06-05,0.006377345509770934
2019-06-06,0.02055353568261982
2019-06-07,0.003774877415610418
2019-06-10,0.004100007176099684
2019-06-11,-0.005164476585075856
2019-06-12,-0.0045715627809881434
2019-06-13,-0.014597957440193685
2019-06-14,-0.0014519755298814986
2019-06-17,0.0002431136253205043
2019-06-18,-0.019749752252564468
2019-06-19,-0.0035922451581198818
2019-06-20,-0.006479346518527251
2019-06-21,-0.0008194044350929946
2019-06-24,-0.0014704015896000963
2019-06-25,0.02821765137691122
2019-06-26,-0.01608073837287026
2019-06-27,0.011647825553380772
2019-06-28,0.013791414278321163
2019-07-01,-0.00999246935673371
2019-07-02,-0.006401379605552597
2019-07-03,0.0102537737473631
2019-07-05,-0.010026002397446125
2019-07-08,0.0020391820461970666
2019-07-09,-0.00017161040315848613
2019-07-10,-0.008862826432133994
2019-07-11,0.0009731762674484168
2019-07-12,-0.013056519231267164
2019-07-15,-0.0038176899266219003
2019-07-16,0.004872367453754332
2019-07-17,0.010568889002798842
2019-07-18,0.0018611927324338183
2019-07-19,-0.00234450490484265
2019-07-22,-0.0037724773227377825
2019-07-23,0.0035528384729581076
2019-07-24,-0.018734776729740065
2019-07-25,0.003957874825189613
2019-07-26,0.005324323383004618
2019-07-29,0.0062470093007657365
2019-07-30,-0.00604179451946652
2019-07-31,-0.010274438011495477
2019-08-01,-0.018261488440752836
2019-08-02,0.013706472010215014
2019-08-05,0.025135854661054124
2019-08-06,0.008288310429805063
2019-08-07,0.01579657130107261
2019-08-08,-0.011014507659138651
2019-08-09,-0.005031073877484055
2019-08-12,0.005059303452004877
2019-08-13,-0.005871437536201185
2019-08-14,0.015340794695213631
2019-08-15,-0.007049235587027182
2019-08-16,-0.0013757253835888373
2019-08-19,-0.012763343359537991
2019-08-20,-0.0028563413669160168
2019-08-21,-0.005465888882100852
2019-08-22,0.010590672753805694
2019-08-23,0.026199309598083316
2019-08-26,-0.005302161542090377
2019-08-27,0.010764623651882299
2019-08-28,-0.005622133076863781
2019-08-29,-0.015833213894289606
2019-08-30,0.004159255375019991
2019-09-03,-0.01377868595398519
2019-09-04,0.007244012164932247
2019-09-05,-0.02099628828834409
2019-09-06,-0.00278456165839943
2019-09-09,-0.017043865016003447
2019-09-10,-0.001468497136683368
2019-09-11,-0.013262786897598312
2019-09-12,-0.008563120061474947
2019-09-13,0.004353711213354653
2019-09-16,-0.013447488058346276
2019-09-17,0.001899008767800928
2019-09-18,0.011936896956557303
2019-09-19,-0.003121373851063326
2019-09-20,0.00567136001994527
2019-09-23,0.0005881029385739435
2019-09-24,0.012937993206809884
2019-09-25,-0.00115081885909835
2019-09-26,0.0010246807148822275
2019-09-27,0.005055609182708671
2019-09-30,-0.006620348360276439
2019-10-01,0.00702918028148346
2019-10-02,-0.0016863747375261166
2019-10-03,-0.011601489535590936
2019-10-04,0.0063112122254861715
2019-10-07,-0.0021091031901442608
2019-10-08,0.0021777035715187893
2019-10-09,0.004887711806422728
2019-10-10,-0.007786234919806952
2019-10-11,-0.011407461545716441
2019-10-14,-0.002541078621732494
2019-10-15,-0.015353830966235396
2019-10-16,0.005629030705153021
2019-10-17,0.0058412989693631635
2019-10-18,0.015231168278103955
2019-10-21,-0.005939433143533297
2019-10-22,-0.005466662342493835
2019-10-23,0.004721360141245511
2019-10-24,-0.004839327508989398
2019-10-25,-0.000892121558861386
2019-10-28,-0.0036867937614711356
2019-10-29,0.005450015039308638
2019-10-30,0.002606997555139708
2019-10-31,-0.005138921912084828
2019-11-01,-0.07149233365412311
2019-11-04,-0.021116802680095782
2019-11-05,0.0029358872782572925
2019-11-06,0.005783080489633441
2019-11-07,-0.0039090581802368185
2019-11-08,-0.008977153370352748
2019-11-11,-0.00297436432167489
2019-11-12,-0.006207878254303499
2019-11-13,0.009193081531530872
2019-11-14,0.007636730099467539
2019-11-15,-0.011831911241785129
2019-11-18,0.001984662397179062
2019-11-19,-0.0013598033672883542
2019-11-20,0.006411531747856986
2019-11-21,0.010208330026546215
2019-11-22,-0.01286791926315471
2019-11-25,-0.001999670277618716
2019-11-26,0.008811480567029772
2019-11-27,-0.002588164995599695
2019-11-29,-0.0013913656114836214
2019-12-02,0.01180454782945373
2019-12-03,0.01034132701537871
2019-12-04,-0.015253093113450585
2019-12-05,-0.0008157642441894925
2019-12-06,-0.005972033669130807
2019-12-09,0.009040025908145167
2019-12-10,-0.004356843085203552
2019-12-11,0.001956582674051904
2019-12-12,0.007747853404642515
2019-12-13,-0.005235352702068093
2019-12-16,-0.005800448204647565
2019-12-17,-0.0072609703479562795
2019-12-18,-0.0022990868106430888
2019-12-19,-0.005964273806878372
2019-12-20,0.005725339213229325
2019-12-23,0.00572653825321057
2019-12-24,-0.006818052390870228
2019-12-26,-0.005054906834650197
2019-12-27,0.0009486025339076886
2019-12-30,0.014084267545317889
2019-12-31,-0.004713614580457806
2020-01-02,-0.025377093797219384
2020-01-03,0.00873260879084484
2020-01-06,-0.002615250147869229
2020-01-07,-0.006600739040829054
2020-01-08,-0.00477221071859035
2020-01-09,0.0016920381438950303
2020-01-10,0.011929910076475982
2020-01-13,-0.00845729637803742
2020-01-14,0.0013322219734283377
2020-01-15,-0.0034313495276697705
2020-01-16,0.0004759660340223292
2020-01-17,-0.01439474607587338
2020-01-21,-0.01727556334778918
2020-01-22,-0.0022832702829926254
2020-01-23,0.012424804438501821
2020-01-24,0.007667108132113519
2020-01-27,0.013500844329452262
2020-01-28,-0.015958989068646456
2020-01-29,0.004115943522902055
2020-01-30,-0.002763259677333684
2020-01-31,0.018109661792425437
2020-02-03,0.0017687104982622107
2020-02-04,-0.02312505832102807
2020-02-05,0.0001568029417448164
2020-02-06,-0.008868334584179665
2020-02-07,0.00017519856471813488
2020-02-10,-0.020788429821162895
2020-02-11,-0.0003702843743225131
2020-02-12,-0.018027909296804843
2020-02-13,0.007788557525479803
2020-02-14,-0.0018375600904715528
2020-02-18,-0.009631235612251734
2020-02-19,-0.0072249158611071345
2020-02-20,0.004767295725327965
2020-02-21,-0.011286415055555343
2020-02-24,0.017588676068695644
2020-02-25,0.023969529413357525
2020-02-26,-0.012474646401038
2020-02-27,0.040774263697231375
2020-02-28,-0.0017144045191283953
2020-03-02,-0.03585805149265063
2020-03-03,0.022420857957452068
2020-03-04,-0.008296092428039501
2020-03-05,0.005190697913608476
2020-03-06,0.05105832557553638
2020-03-09,0.03925807981369088
2020-03-10,-0.02931504134820867
2020-03-11,0.012651844840967014
2020-03-12,0.0598815419359276
2020-03-13,-0.06735343398232807
2020-03-16,0.03336538931130638
2020-03-17,0.040472209998850456
2020-03-18,0.0553826737597307
2020-03-19,0.017454003449194153
2020-03-20,-0.018168169075903767
2020-03-23,-0.06616859734386572
2020-03-24,-0.047133320642009736
2020-03-25,0.0058072067387281556
2020-03-26,0.004776852640606622
2020-03-27,0.003536706855761078
2020-03-30,0.03759388009668828
2020-03-31,0.011561951942786383
2020-04-01,0.015977134011826735
2020-04-02,-0.018820402681359694
2020-04-03,-0.0030033502824412892
2020-04-06,-0.0014987885160079358
2020-04-07,0.006896613852310418
2020-04-08,-0.0023382182543027325
2020-04-09,0.01666602279407179
2020-04-13,-0.042310813766771295
2020-04-14,-0.018164206903131443
2020-04-15,-0.010356073157198884
2020-04-16,0.00010937468000807817
2020-04-17,-0.013331969165214064
2020-04-20,0.052363402015896864
2020-04-21,0.02597390753538514
2020-04-22,-0.02232075226174694
2020-04-23,-0.0121554911005529
2020-04-24,-0.02372803980036446
2020-04-27,0.06411982106175843
2020-04-28,-0.0029905647863526716
2020-04-29,-0.0416907996407918
2020-04-30,-0.01284083495030129
2020-05-01,0.020322454976920683
2020-05-04,-0.002210166022025753
2020-05-05,-0.024475099696131226
2020-05-06,-0.0033071609611055736
2020-05-07,-0.005137790821874575
2020-05-08,0.000799211914522902
2020-05-11,-0.017376640485216706
2020-05-12,0.0005843641153648457
2020-05-13,0.003095982349816722
2020-05-14,-0.008863482136942404
2020-05-15,-0.01979141233971778
2020-05-18,-0.0015826869597576204
2020-05-19,0.0054844880429110315
2020-05-20,-0.010659378755747486
2020-05-21,0.013014562479053473
2020-05-22,-0.0038572454796615054
2020-05-26,0.036142366098045546
2020-05-27,0.013037803354338828
2020-05-28,-0.003972416576238097
2020-05-29,-0.009143536228281646
2020-06-01,-0.0058653153345629575
2020-06-02,0.00011720073644479005
2020-06-03,0.00045522959535581285
2020-06-04,-0.00382929961895087
2020-06-05,-0.012686510310760823
2020-06-08,-0.010830211367286284
2020-06-09,-0.004797155223052446
2020-06-10,-0.006381046691265638
2020-06-11,-0.006805623767232151
2020-06-12,-0.001084716012441362
2020-06-15,-0.014257310279279577
2020-06-16,-0.0021577742070935657
2020-06-17,-0.0005917130683216927
2020-06-18,0.0004632079116059889
2020-06-19,0.006237050456986252
2020-06-22,-0.009129035091889528
2020-06-23,-0.004837208511351036
2020-06-24,0.011525356469021674
2020-06-25,0.0031523684050057854
2020-06-26,0.02472976645008163
2020-06-29,-0.001040106608335572
2020-06-30,0.007575674853421303
2020-07-01,-0.002629262119979313
2020-07-02,0.015903348125623853
2020-07-06,-0.014859918275464465
2020-07-07,0.008419524671632709
2020-07-08,-0.029281625969779335
2020-07-09,0.010473185487499781
2020-07-10,0.0005954687743125002
2020-07-13,0.0023122864311980046
2020-07-14,0.0112020158673294
2020-07-15,0.0020149508768413094
2020-07-16,-0.0008328271224662019
2020-07-17,0.014256360167970302
2020-07-20,-0.014711378793170277
2020-07-21,-0.007723862889027205
2020-07-22,-0.002006348861809125
2020-07-23,0.013398185271521602
2020-07-24,0.01430013773911772
2020-07-27,-0.0037383618108485974
2020-07-28,-0.003314458762816982
2020-07-29,-0.008010835401738102
2020-07-30,-0.005779785252874741
2020-07-31,-0.027350287738407038
2020-08-03,0.018247786899219423
2020-08-04,-0.005127583552844277
2020-08-05,-0.00942366480856799
2020-08-06,-0.01012016243802008
2020-08-07,0.014066482669728708
2020-08-10,-0.01903877414548752
2020-08-11,0.010983282540004326
2020-08-12,-0.0067783181734373515
2020-08-13,0.0024750605304270303
2020-08-14,0.00011327860739536249
2020-08-17,-0.012147947478153957
2020-08-18,-0.004987974993392355
2020-08-19,0.002130189842495995
2020-08-20,-0.006576376288883818
2020-08-21,9.516545792063673e-05
2020-08-24,0.005450683729510927
2020-08-25,-0.012719594363928324
2020-08-26,-0.006508210640913065
2020-08-27,0.011446764870166144
2020-08-28,-0.022522994250653124
2020-08-31,0.00044118348366711357
2020-09-01,-0.0018284758332241604
2020-09-02,0.01202307748078487
2020-09-03,0.016648454468985094
2020-09-04,0.006673718081539265
2020-09-08,0.010180961167671948
2020-09-09,-0.008017407802903874
2020-09-10,0.011576704861458911
2020-09-11,0.012299397979487824
2020-09-14,-0.01410982712442274
2020-09-15,-0.014637704499190034
2020-09-16,-0.0007635131726527047
2020-09-17,-0.006104255769967253
2020-09-18,-0.0006879608302692669
2020-09-21,-0.002280193251145725
2020-09-22,-0.001274601818813443
2020-09-23,0.007933725035347037
2020-09-24,-0.0008426848070969588
2020-09-25,-0.020640560009957423
2020-09-28,-0.016194138668684407
2020-09-29,0.006047529054257065
2020-09-30,-0.002414641776434017
2020-10-01,-0.006519701789587049
2020-10-02,0.003942876039525886
2020-10-05,-0.007001068790626447
2020-10-06,0.012437233830887448
2020-10-07,-0.0158070942335135
2020-10-08,0.004985075603063825
2020-10-09,-0.006232874929768239
2020-10-12,-0.004611831240643283
2020-10-13,-0.0001731664294798655
2020-10-14,-0.002467789203380758
2020-10-15,-0.0005140498842549134
2020-10-16,0.0017081919465726347
2020-10-19,0.003477119108401089
2020-10-20,0.014115854854295317
2020-10-21,0.011376415066250742
2020-10-22,-0.0017643905706073745
2020-10-23,-0.0021898595396815743
2020-10-26,0.009985854981237512
2020-10-27,-0.008317919191545987
2020-10-28,0.004336191802073153
2020-10-29,-0.004090812876646934
2020-10-30,0.022556408638281053
2020-11-02,0.023643395375190016
2020-11-03,-0.00853133483470828
2020-11-04,-0.02732241520522427
2020-11-05,0.010625551919287395
2020-11-06,0.0038482168837783767
